Time[sec],x1[k],x2[k],x3[k],x4[k],d/dt x3[k],d/dt x4[k],voltage
0.0,2.792526803190927,0.0,0.0,0.0,-25.281069743146013,25.281069743146013,0.0
0.001,2.7925141701323666,1.2575565141547789e-05,-0.025258666946290493,0.02508613632697049,-25.236602750168803,24.892433196902438,0.0
0.002,2.792476300244195,5.00446685459655e-05,-0.05047387602649773,0.04978728758608053,-25.194157519756413,24.511100220557136,0.0
0.003,2.792413236095507,0.00011202491023809911,-0.0756476496496378,0.07411072252746877,-25.153724455253617,24.13696149374871,0.0
0.004,2.792325018060906,0.0001981426830367783,-0.10078199239888776,0.09806357144259048,-25.115294163881273,23.76990979957744,0.0
0.005,2.792211684583028,0.00030803088483965276,-0.12587890246727645,0.12165286898624461,-25.078857400605344,23.40983938097699,0.0
0.006,2.7920732720968253,0.0004413294481462585,-0.1509403688134955,0.1448855440675864,-25.044405082732936,23.056646094000804,0.0
0.007,2.7919098150207993,0.0005976852939905663,-0.17596837124766093,0.16776842056791225,-25.011928290142592,22.710227398204772,0.0
0.008,2.7917213458526042,0.0007767519231778803,-0.2009648809922487,0.1903082235096253,-24.981418254598395,22.3704822613261,0.0
0.009,2.7915078951029253,0.0009781895830379076,-0.22593186048502858,0.2125115765713987,-24.952866366033064,22.037311199657168,0.0
0.01,2.791269491327931,0.0012016650526750954,-0.2508712636982495,0.2343850053536216,-24.926264168099614,21.71061622879688,0.0
0.011,2.7910061611391908,0.0014468515275687433,-0.2757850363204699,0.25593493914345966,-24.90160335626203,21.39030083752554,0.0
0.012,2.7907179291926556,0.001713428748182439,-0.30067511555290144,0.2771677089467398,-24.87887577986791,21.076270016879107,0.0
0.013,2.7904048182042445,0.002001082819540742,-0.325543430391995,0.2980895502458567,-24.858073439098003,20.768430219261553,0.0
0.014,2.7900668489639218,0.0023095060464568638,-0.3503919018914242,0.3187066055223513,-24.839188482143893,20.466689321014073,0.0
0.015,2.789704040361598,0.0026383966252249485,-0.3752224436626349,0.33902492898729253,-24.822213200003553,20.170956552312038,0.0
0.016,2.7893164093770966,0.002987458770717585,-0.4000369616530043,0.35905048461572026,-24.807140028372316,19.881142526022494,0.0
0.017,2.7889039710959187,0.0033564025308401666,-0.4248373544427137,0.37878914898911376,-24.793961544382093,19.597159195446082,0.0
0.018,2.7884667387154027,0.0037449437115775553,-0.44962551336976897,0.39824671244873533,-24.78267046513053,19.318919837022882,0.0
0.019,2.7880047235094034,0.004152804262800918,-0.4744033219725516,0.4174288732450999,-24.773259653810534,19.04633913672837,0.0
0.02,2.7875179348840753,0.004579711654676723,-0.4991726569215716,0.43634124702509214,-24.765722109076354,18.779333049280883,0.0
0.021,2.787006380380741,0.005025398840364769,-0.5239353880862463,0.45498936741051005,-24.76005096409506,18.51781878925575,0.0
0.022,2.786470065677373,0.005489604233384587,-0.5486933785808304,0.4733786863545175,-24.756239485810827,18.261714825459215,0.0
0.023,2.78590899458099,0.00597207177398862,-0.5734484846922892,0.49151457315890873,-24.754281075699357,18.01094089516555,0.0
0.024,2.7853231690474085,0.006472550714031141,-0.5982025561989314,0.5094023177442358,-24.754169265733925,17.765417955218492,0.0
0.025,2.7847125891903812,0.006990795511061064,-0.6229574365374287,0.5270471322698227,-24.755897716163627,17.525068157583743,0.0
0.026,2.784077253285546,0.0075265657756720976,-0.6477149628959407,0.5444541519492199,-24.759460214159162,17.28981483680706,0.0
0.027,2.7834171577688056,0.008079626267950406,-0.6724769662410386,0.5616284351258654,-24.764850673305663,17.0595825084691,0.0
0.028,2.7827322972473496,0.008649746775900831,-0.6972452715055946,0.5785749651289064,-24.77206313099304,16.83429684111475,0.0
0.029,2.78202266451037,0.009236701996669929,-0.7220216977728552,0.5952986520868349,-24.78109174582248,16.61388462877749,0.0
0.03,2.7812882505320666,0.009840271489853988,-0.746808058361193,0.6118043336528305,-24.791930796244166,16.3982737796657,0.0
0.031,2.7805290444758413,0.010460239619883438,-0.7716061609220508,0.6280967758931623,-24.804574678971296,16.18739330238828,0.0
0.032,2.7797450336924032,0.01109639555564033,-0.7964178074529367,0.6441806733054322,-24.81901790837186,15.981173305096112,0.0
0.033,2.7789362037402188,0.01174853305977743,-0.821244794622554,0.6600606520341442,-24.835255112108825,15.779544947006238,0.0
0.034,2.778102538385245,0.012416450473056263,-0.8460889138064761,0.6757412701212531,-24.853281030193493,15.582440434017768,0.0
0.035,2.7772440195999644,0.013099950704267596,-0.8709519511017864,0.6912270176590907,-24.87309051413226,15.389793015760592,0.0
0.036,2.7763606275660018,0.013798841186984252,-0.8958356873974895,0.7065223174541081,-24.894678525435996,15.201536974998538,0.0
0.037,2.775452340695542,0.014512933661779442,-0.9207418987374123,0.7216315283776334,-24.918040130933015,15.017607576971582,0.0
0.038,2.7745191356292116,0.015242044176933513,-0.9456723563174791,0.7365589453534523,-24.94317050200407,14.837941068801218,0.0
0.039,2.7735609872412232,0.015985993021747934,-0.9706288265960686,0.7513088003830636,-24.970064912559973,14.66247466340209,0.0
0.04,2.772577868644485,0.016744604660200883,-0.9956130714040312,0.7658852635659095,-24.998718736988806,14.491146523432121,0.0
0.041,2.7715697511955506,0.017517707666081187,-1.020626848052463,0.7802924440970809,-25.029127448092957,14.323895745541543,0.0
0.042,2.7705366044953035,0.018305134697919886,-1.0456719093604536,0.794534390638992,-25.06128661573216,14.160662353916724,0.0
0.043,2.7694783963739678,0.019106722619873777,-1.0707500033873303,0.8086150893951597,-25.09519190815732,14.001387328040801,0.0
0.044,2.768395092925358,0.0199223121639787,-1.0958628740966139,0.822538469407882,-25.13083908472508,13.8460125227267,0.0
0.045,2.7672866585024414,0.020751747952826957,-1.1210122612891253,0.8363084021802192,-25.168223995316712,13.69448067272224,0.0
0.046,2.7661530557182648,0.021594878472208832,-1.1461999006384105,0.8499287020867651,-25.20734257878064,13.546735385517096,0.0
0.047,2.764994245449183,0.02245155602241318,-1.1714275237702458,0.8634031271212848,-25.248190860934535,13.402721129087642,0.0
0.048,2.763810186837879,0.02332163667141829,-1.196696858339064,0.8767353796153379,-25.29076495256196,13.262383220034462,0.0
0.049,2.7626008372970796,0.024204980201742447,-1.222009628109804,0.8899291070493136,-25.33506104726278,13.125667810305735,0.0
0.05,2.7613661525455466,0.025101449760704758,-1.2473675533451123,0.9029879072378828,-25.38107541422665,12.992521808828867,0.0
0.051,2.760106086581499,0.02601091208579049,-1.2727723505971427,0.9159153250298955,-25.42880440074071,12.862892929293974,0.0
0.052,2.7588205916762885,0.026933237543859363,-1.2982257326905928,0.9287148517534982,-25.47824443149106,12.736729697068068,0.0
0.053,2.7575096183890278,0.027868299977897526,-1.3237294089034861,0.9413899274994045,-25.529392004554143,12.613981413861096,0.0
0.054,2.7561731155696574,0.028815976659992793,-1.3492850850370641,0.9539439418359438,-25.58224368915262,12.494598145671684,0.0
0.055,2.7548110303618865,0.029776148245534963,-1.3748944634832851,0.9663802345049095,-25.636796123390283,12.378530710975367,0.0
0.056,2.753423308206006,0.030748698728641388,-1.4005592432899332,0.9787020960982071,-25.69304601196534,12.26573066915457,0.0
0.057,2.752009892852248,0.031733515307536486,-1.4262811202800816,0.9909127700242458,-25.75099012233025,12.156150289680536,0.0
0.058,2.75057072636914,0.0327304882928835,-1.4520617871432218,1.0030154538567106,-25.810625281530992,12.049742530448071,0.0
0.059,2.749105749122305,0.033739511268747566,-1.477902933367685,1.0150132970586485,-25.871948377240756,11.946461070033692,0.0
0.06,2.7476148997888505,0.034760480949564625,-1.5038062453604455,1.0269094030645896,-25.93495635364637,11.84626027501633,0.0
0.061,2.746098115360454,0.035793297133814794,-1.5297734065051667,1.0387068299741713,-25.999646208913113,11.74909518792601,0.0
0.062,2.744555331146156,0.03683786266035592,-1.555806097216962,1.0504085912059817,-26.066014992647876,11.654921515736543,0.0
0.063,2.74298648077506,0.0378940833656251,-1.581905994994987,1.062017656137326,-26.13405980333028,11.563695618519407,0.0
0.064,2.741391496200508,0.03896186803247356,-1.6080747744565107,1.0735369508402577,-26.20377778556319,11.475374496596242,0.0
0.065,2.7397703077103683,0.04004112830322019,-1.634314107303926,1.0849693592414542,-26.275166126703944,11.389915771257165,0.0
0.066,2.738122843917843,0.04113177870824039,-1.6606256624926186,1.0963177228978571,-26.348222055294748,11.30727768626927,0.0
0.067,2.7364490317671666,0.04223373660685843,-1.6870111062398525,1.10758484181649,-26.42294283804033,11.22741909360678,0.0
0.068,2.7347487965371697,0.043346922141195475,-1.7134721020528931,1.1187734751157603,-26.49932577694354,11.150299441513905,0.0
0.069,2.7330220618437653,0.0444712581967638,-1.740010310765363,1.1298863416024452,-26.577368206497376,11.075878763780906,0.0
0.07,2.731268749642362,0.04560667036382649,-1.76662739057125,1.1409261203358256,-26.65706749083772,11.004117669157186,0.0
0.071,2.7294887802304273,0.046753086898305776,-1.7933249970540934,1.151895451193191,-26.738421020835766,10.934977330685278,0.0
0.072,2.7276820722586357,0.04791043863565067,-1.820104783116864,1.1627969359814128,-26.821426210371616,10.868419466724188,0.0
0.073,2.7258485427255246,0.04907865899618923,-1.8469683990934809,1.1736331384750311,-26.90608049404274,10.804406338135301,0.0
0.074,2.7239881069771474,0.05025768396325787,-1.8739174928012134,1.1844065847687124,-26.99238132437213,10.742900740655038,0.0
0.075,2.722100678712568,0.051447452029426806,-1.9009537095244737,1.1951197639988012,-27.080326168441246,10.68386599162843,0.0
0.076,2.7201861699861927,0.0526479041605945,-1.928078692030946,1.2057751288520582,-27.169912504755978,10.627265919895422,0.0
0.077,2.718244491210045,0.05385898376074026,-1.955294080585148,1.2163750960627968,-27.261137820065116,10.573064855788942,0.0
0.078,2.716275551155997,0.05508063663733551,-1.9826015129594226,1.2269220468984172,-27.353999606129577,10.521227621242758,0.0
0.079,2.714279256962714,0.05631281094941627,-2.010002624367505,1.2374183278053918,-27.448495356117782,10.4717195173243,0.0
0.08,2.712255514140643,0.057555457163509176,-2.037499047425448,1.247866250974865,-27.5446225610814,10.424506312950633,0.0
0.081,2.7102042265631745,0.058808528062209674,-2.06509241232624,1.2582680943995832,-27.64237870731399,10.379554241466053,0.0
0.082,2.708125296474193,0.06007197869137339,-2.092784346753786,1.2686261025123835,-27.741761272539083,10.33682998807041,0.0
0.083,2.706018624490482,0.061345766327189244,-2.1205764758742762,1.2789424866293024,-27.84276772239048,10.296300680220174,0.0
0.084,2.7038841096039907,0.06262985044424518,-2.148470422326375,1.2892194253778895,-27.945395506843404,10.257933878183337,0.0
0.085,2.701721649184072,0.06392419268418043,-2.176467806208543,1.2994590651146047,-28.049642056587885,10.221697565686295,0.0
0.086,2.6995311389825685,0.06522875681494633,-2.204570245019153,1.3096635204238534,-28.155504779153944,10.187560139192545,0.0
0.087,2.6973124731497924,0.06654350865293211,-2.2327793534260976,1.319834874955993,-28.26298105426168,10.15549039175568,0.0
0.088,2.6950655442131923,0.06786841611448197,-2.26109674360594,1.3299751810596943,-28.372068231558313,10.125457515800317,0.0
0.089,2.692790243086427,0.0692034491628219,-2.2895240251127937,1.3400864603789573,-28.482763626291042,10.097431090604132,0.0
0.09,2.6904864590737816,0.07054857977156229,-2.3180628048153866,1.3501707042909046,-28.595064515221544,10.07138107220609,0.0
0.091,2.6881540798724792,0.07190378189595001,-2.3467146868630926,1.360229874266218,-28.708968132612007,10.047277784447434,0.0
0.092,2.68579299157497,0.0732690314446655,-2.3754812726489116,1.37026590221905,-28.82447166614445,10.025091910090413,0.0
0.093,2.6834030786712044,0.07464430625216444,-2.4043641607693917,1.3802806908464045,-28.941572252771763,10.004794482013168,0.0
0.094,2.6809842240508845,0.07602958605156428,-2.4333649469815035,1.3902761139569941,-29.060266974499644,9.98635687447991,0.0
0.095,2.6785363090057235,0.07742485244798886,-2.4624852241560133,1.400254016790313,-29.180552854095932,9.969750794472738,0.0
0.096,2.676059213263925,0.07883008879117445,-2.4917265817100382,1.4102162171969745,-29.30242684875438,9.954948259161746,0.0
0.097,2.673552814974906,0.08024528020488095,-2.5210906058353597,1.4201645054635181,-29.425885846742034,9.941921594955968,0.0
0.098,2.671016990681145,0.08167041365721794,-2.550578879930065,1.4301006437792094,-29.55092666474854,9.930643442167927,0.0
0.099,2.6684516153422493,0.08310547786741658,-2.580192984188241,1.4400263671047824,-29.677546041959125,9.921086737167904,0.0
0.1,2.665856562337784,0.08455046327980052,-2.6099344955273645,1.4499433834569309,-29.80574063535328,9.913224703779537,0.0
0.101,2.6632317034701147,0.08600536203820035,-2.6398049875121137,1.459853374183146,-29.935507014922898,9.907030844727295,0.0
0.102,2.6605769089672595,0.0874701679608111,-2.669806030274614,1.469757994226901,-30.06684165880901,9.902478933135068,0.0
0.103,2.6578920474857606,0.088944876515493,-2.699939190431105,1.4796588723831834,-30.19974094835509,9.89954300407361,0.0
0.104,2.6551769861135597,0.09042948479551562,-2.7302060309950424,1.4895576115443714,-30.33420116307638,9.89819734615665,0.0
0.105,2.6524315903822475,0.09192399147378373,-2.760608111128359,1.499455789079497,-30.47021847504903,9.898416490726667,0.0
0.106,2.649655724310313,0.0934283966847445,-2.7911469853648105,1.5093549576777674,-30.60778894158454,9.900175192956638,0.0
0.107,2.646849250335305,0.09494270216758441,-2.821824204709498,1.5192566444834925,-30.746908503683166,9.903448442171836,0.0
0.108,2.6440120293388887,0.09646691119180277,-2.8526413161633535,1.5291623516416695,-30.88757297947959,9.908211447810345,0.0
0.109,2.641143920656305,0.0980010285198699,-2.8835998625081056,1.5390735565952567,-31.02977805842814,9.914439629529802,0.0
0.11,2.6382447820801262,0.09954506038375671,-2.9147013821844387,1.5489917122853376,-31.173519295697545,9.922108608856025,0.0
0.111,2.6353144698640576,0.10109901446182237,-2.9459474091659676,1.5589182473421854,-31.31879210647028,9.931194200861029,0.0
0.112,2.6323528387267903,0.10266289985606009,-2.977339472829027,1.5688545662672273,-31.46559176014448,9.941672405868495,0.0
0.113,2.629359741855903,0.10423672706970102,-3.0088790978182733,1.5788020496059119,-31.613913374437217,9.953519401185382,0.0
0.114,2.6263350309119073,0.10582050798498575,-3.040567803906418,1.5887620541124061,-31.76375190938314,9.966711532840982,0.0
0.115,2.623278556076874,0.1074142557532918,-3.072407105071695,1.5987359133344594,-31.915102159098023,9.981225299326475,0.0
0.116,2.6201901660309947,0.10901798482812888,-3.104398509831155,1.6087249374940207,-32.0679587469166,9.99703734837059,0.0
0.117,2.6170697079198275,0.1106317110170086,-3.1365435217334894,1.6187304132684321,-32.22231612085474,10.014124475403698,0.0
0.118,2.613917027386639,0.11225545140510637,-3.1688436387109373,1.6287536041896609,-32.37816854584622,10.032463610317343,0.0
0.119,2.610731968577533,0.11388922433317701,-3.201300352903534,1.6387957507715323,-32.535510097185316,10.05203180916125,0.0
0.12,2.607514374146665,0.11553304937574292,-3.233915150478413,1.6488580706282812,-32.69433465385988,10.072806245849929,0.0
0.121,2.6042640852615495,0.11718694731955547,-3.2666895114441754,1.6589417585844204,-32.854635891772816,10.094764203876807,0.0
0.122,2.600980941608465,0.11885094014232872,-3.2996249094603125,1.6690479867759245,-33.016407276851055,10.11788306803502,0.0
0.123,2.597664781397941,0.12052505099174643,-3.332722811641694,1.6791779047427333,-33.179642058040585,10.14214031614333,0.0
0.124,2.594315441384571,0.1222093041420155,-3.3659846781101104,1.6893326395763608,-33.344333259560294,10.167513509274855,0.0
0.125,2.5909327569280087,0.12390372488503154,-3.3994119608243487,1.699513296243123,-33.51047367124761,10.193980277668178,0.0
0.126,2.587516561898537,0.12560833967029472,-3.4330061051168657,1.7097209572012364,-33.67805584563151,10.22151832305358,0.0
0.127,2.5840666887157813,0.12732317603252183,-3.466768548905752,1.7199566826059094,-33.847072089007035,10.250105406913768,0.0
0.128,2.5805829683631867,0.1290482625583953,-3.50070072232587,1.7302215103966658,-34.01751445347237,10.279719341322998,0.0
0.129,2.5770652303951933,0.13078362886540615,-3.534804047484048,1.7405164563428053,-34.189374729171504,10.310337980565947,0.0
0.13,2.5735133029445487,0.1325293055808882,-3.5690799382084464,1.7508425140804067,-34.36264443641321,10.3419392127491,0.0
0.131,2.5699270127297686,0.13428532432124335,-3.6035297997920877,1.761200655140883,-34.53731481766443,10.374500951402318,0.0
0.132,2.566306185062738,0.13605171767135774,-3.638155028730559,1.7715918289710777,-34.7133768294176,10.408001127070495,0.0
0.133,2.5626506438567156,0.137828519163871,-3.6729570124494724,1.7820169629451443,-34.89082113391974,10.442417678879647,0.0
0.134,2.5589602116982473,0.13961576317455623,-3.7079371279305335,1.792476962425951,-35.069638088164574,10.477728542686592,0.0
0.135,2.5552347098114048,0.14141348496005315,-3.743096742184142,1.8029727107199982,-35.24981773720828,10.513911645013184,0.0
0.136,2.551473958019686,0.1432217206990584,-3.7784372127587162,1.8135050690216348,-35.431349807417455,10.550944897059658,0.0
0.137,2.5476777747920814,0.14504050742292782,-3.813959886800741,1.8240748764252066,-35.61422369614388,10.588806184212697,0.0
0.138,2.5438459772528303,0.1468698829945335,-3.8496661007352473,1.834682949895611,-35.79842846277112,10.627473357495973,0.0
0.139,2.53997838119138,0.14870988608723246,-3.885557179939433,1.845330084230451,-35.98395281962699,10.666924225001907,0.0
0.14,2.536074801072547,0.15056055616394765,-3.921634438409415,1.8560170520137915,-36.17078512276172,10.707136543304223,0.0
0.141,2.5321350500468838,0.1524219334563607,-3.957899178420123,1.8667446035615156,-36.35891336259079,10.748088008850488,0.0
0.142,2.528158939961247,0.15429405894421674,-3.9943526901783284,1.8775134668582816,-36.54832515440195,10.789756249334062,0.0
0.143,2.5241462813841116,0.15617697431821032,-4.030996251228761,1.8883243474728268,-36.73900772815493,10.832118814655779,0.0
0.144,2.5200968837204862,0.15807072184137472,-4.0678311243778635,1.8991779283833925,-36.93094791466325,10.875153165500855,0.0
0.145,2.516010555032016,0.15997534454590528,-4.104858560480023,1.9100748700636399,-37.1241321432349,10.918836669800818,0.0
0.146,2.5118871021381115,0.1618908861109006,-4.142079796581811,1.9210158103042108,-37.31854642809262,10.963146591601927,0.0
0.147,2.5077263306247954,0.1638173908453436,-4.17949605558594,1.932001364110189,-37.51417635831846,11.008060082416478,0.0
0.148,2.5035280448581987,0.16575490366613302,-4.21710854583488,1.9430321235861037,-37.71100708748789,11.053554172434644,0.0
0.149,2.4992920479982925,0.16770347007619632,-4.254918460687157,1.9541086578125113,-37.90902332316699,11.099605761714855,0.0
0.15,2.4950181420128548,0.16966313614267595,-4.292926978086223,1.9652315127141444,-38.10820931627341,11.146191611353743,0.0
0.151,2.490706127691681,0.17163394847518026,-4.331135260121795,1.9764012109196263,-38.308548850300646,11.193288334635042,0.0
0.152,2.4863558046616387,0.1736159542035141,-4.369544452574424,1.987618251611577,-38.510025230383164,11.240872388151168,0.0
0.153,2.481966971493101,0.1756092008659292,-4.408155683043432,1.9988831101876965,-38.7126212687523,11.288920061908911,0.0
0.154,2.4775394256448395,0.17761373645639084,-4.446970061568668,2.010196238234038,-38.91631927630259,11.337407471262438,0.0
0.155,2.473072963422744,0.17962960945855305,-4.48598868103456,2.021558063462948,-39.12110105342986,11.386310548602836,0.0
0.156,2.4685673800468715,0.1816568687736121,-4.525212615895687,2.032968989428448,-39.326947876611854,11.435605033843522,0.0
0.157,2.464022469669492,0.18369556369659645,-4.564642921656058,2.044429395330802,-39.533840486756816,11.485266465450081,0.0
0.158,2.459438025393597,0.18574574389250212,-4.604280634337461,2.0559396358122792,-39.74175907741582,11.535270171454677,0.0
