Time[sec],x1[k],x2[k],x3[k],x4[k],d/dt x3[k],d/dt x4[k],voltage
0.0,0.0,0.0,0.0,0.0,-28.067341181049954,717.7668185329665,12.0
0.001,-1.3961208525269318e-05,0.0003571746085478457,-0.02785025855246564,0.7126494745066222,-27.63387175677434,707.55614595235,12.0
0.002,-5.5556677980130365e-05,0.0014219183130473846,-0.0552691283536485,1.4151600574211043,-27.20455562351528,697.4887273095935,12.0
0.003,-0.00012435704512875944,0.003184162529312611,-0.08226073661931751,2.107674012022778,-26.779339969985248,687.5625580106137,12.0
0.004,-0.0002199370896991231,0.005633980912430063,-0.10882915779522656,2.7903315973675356,-26.358172863172317,677.7756618365709,12.0
0.005,-0.0003418756401680536,0.008761586397795151,-0.13497841482326034,3.463271110149482,-25.941003230414196,668.1260903516214,12.0
0.006,-0.0004897555227520343,0.012557329255144228,-0.16071247999433858,4.126628912251528,-25.5277808467987,658.6119225123375,12.0
0.007,-0.0006631635110014773,0.01701169516071149,-0.18603527579286377,4.780539458039005,-25.11845632268866,649.2312642807773,12.0
0.008,-0.0008616902763351307,0.022115303300327512,-0.2109506757270936,5.425135321214565,-24.7129810914529,639.9822482437794,12.0
0.009,-0.0010849303406414578,0.02785890454013841,-0.23546250512871442,6.0605472207146,-24.31130739762893,630.863033245839,12.0
0.01,-0.0013324820307152859,0.03423337965650092,-0.2595745419253449,6.686904045766708,-23.91338828546148,621.8718040338713,12.0
0.011,-0.001603947424464315,0.04122973729926376,-0.2832905175348281,7.304332884726786,-23.519177585795813,613.0067708484729,12.0
0.012,-0.0018989323049227284,0.048839112207893574,-0.3066141176440231,7.9129590503316924,-23.128629904544827,604.2661690659351,12.0
0.013,-0.0022170461136492648,0.05705276340761573,-0.32954898299672425,8.512906105235242,-22.74170061103694,595.6482588362504,12.0
0.014,-0.002557901906623683,0.06586207248646929,-0.3520987101446509,9.104295886397155,-22.35834582686904,587.1513247373612,12.0
0.015,-0.0029211168323261556,0.07525855577513535,-0.3742668304493852,9.68724800184353,34.156159664368644,-856.7599541147482,-12.0
0.016,-0.0032783875544110906,0.08451945784880853,-0.3403563807450494,8.836583018376535,33.66555527336267,-844.5986411091036,-12.0
0.017,-0.00360199231638816,0.09293574707418589,-0.3069341002435053,7.997993877857835,33.17981019270624,-832.6078620884041,-12.0
0.018,-0.0038924168686229987,0.10051941442559205,-0.2739951621362399,7.171311245687288,32.69885980221304,-820.7852292443514,-12.0
0.019,-0.004150142183697797,0.10728228336112632,-0.2415348033283588,6.3563681466924224,32.222640525255045,-809.1283881824029,-12.0
0.02,-0.004375644499460461,0.113236011416632,-0.20954832383624852,5.55299994518446,31.751089819727788,-797.635017639114,-12.0
0.021,-0.0045693953432285545,0.1183920910959076,-0.178031086392896,4.7610443323503695,31.284146172032916,-786.3028293031466,-12.0
0.022,-0.004731861617789087,0.12276185306353557,-0.14697851503666376,3.9803412810375773,30.82174907621452,-775.1295671740734,-12.0
0.023,-0.004863505730544408,0.12635647099966846,-0.11638609297439165,3.2107329770118263,30.363839002297006,-764.1130065876074,-12.0
0.024,-0.00496478561106958,0.1291869621876323,-0.08624936231218025,2.4520638106262713,29.910357392464718,-753.2509540974855,-12.0
0.025,-0.005036154787441456,0.1312641903489799,-0.05656392280249905,1.7041803366730335,29.46124664264151,-742.5412469062306,-12.0
0.026,-0.005078062404091256,0.13259886640613827,-0.027325431520404727,0.9669312635962957,29.016450097330463,-731.981752712001,-12.0
0.027,-0.005090953224255164,0.13320154867924563,0.0014703972094742349,0.2401674507188108,28.575912048133805,-721.5703696690584,-12.0
0.028,-0.005075267774390297,0.13308264813371878,0.029827794147514908,-0.47625816608679106,28.139577700040206,-711.3050253343026,-12.0
0.029,-0.005031442388437629,0.1322524301142571,0.05775093589476891,-1.1824905989433458,27.70739316009025,-701.1836763191865,-12.0
0.03,-0.004959909262836504,0.1307210164128626,0.08524394580371082,-1.8786728372521402,27.27930542402349,-691.204307874615,-12.0
0.031,-0.004861096502244665,0.12849838699497038,0.1123108947372577,-2.5649458721335954,26.85526236515213,-681.3649335445041,-12.0
0.032,-0.004735428148065693,0.12559438119967645,0.1389558015834606,-3.2414487134084755,26.435212726450956,-671.6635949248976,-12.0
0.033,-0.004583324251656593,0.12201870043855223,0.16518263445014658,-3.9083184278189727,26.019106103264683,-662.0983611222989,-12.0
0.034,-0.004405200926726447,0.11778091019540415,0.19099531154278665,-4.565690167342293,25.60689293041636,-652.6673283523319,-12.0
0.035,-0.004201470386353684,0.11289044152797958,0.21639770181528972,-5.213697190444119,25.198524472415034,-643.3686196383603,-12.0
0.036,-0.003972541005034478,0.10735659336569318,0.24139362598483438,-5.85247089461714,24.79395280877203,-634.2003843503925,-12.0
0.037,-0.0037188173605387487,0.10118853416626357,0.26598685725347004,-6.48214083983088,24.393130823271758,-625.1607978726305,-12.0
0.038,-0.003440700274285471,0.09439530352306437,0.29018112200736823,-7.102834771283047,23.99601219355794,-616.2480612809204,-12.0
0.039,-0.0031385868719330467,0.08698581442498896,0.313980100813636,-7.714678651400565,23.602551376686304,-607.4604008892658,-12.0
0.04,-0.0028128706184871073,0.07896885469288774,0.3373874290419369,-8.317796680168419,23.21270359978003,-598.796067961581,-12.0
0.041,-0.0024639413618342547,0.07035308868832264,0.3604066976101549,-8.912311319318606,22.826424849001793,-590.2533383688033,-12.0
0.042,-0.0020921853875966534,0.06114705938823153,0.3830414538965619,-9.498343321705681,22.44367185626169,-581.830512172582,-12.0
0.043,-0.0016979854375418083,0.05135918927956816,0.4052952021145858,-10.076011743955545,22.064402093237238,-573.5259134457636,-12.0
0.044,-0.0012817207790973442,0.040997782909813305,0.42717140444193935,-10.645433982586345,21.688573755129227,-565.3378897605868,-12.0
0.045,-0.0008437672488620963,0.030071028594817573,0.44867348176583327,-11.206725798184472,21.31614574963909,-557.2648118459759,-12.0
0.046,-0.0003844972917653977,0.018586999985670375,0.46980481436397054,-11.760001337582201,20.94707768681724,-549.3050732731243,-12.0
0.047,9.571999652742737e-05,0.006553657740831525,0.49056874263351485,-12.30537315752752,20.581329868255146,-541.4570901199465,-12.0
0.048,0.0005965188526585968,-0.006021149628784181,0.5109685674425939,-12.842952236629765,20.21886328140602,-533.7193008015117,-12.0
0.049,0.0011175368276399125,-0.01912968488266919,0.5310075504964714,-13.372847987759698,19.859639593701107,-526.0901658940363,-12.0
0.05,0.001658414694576226,-0.03276431875712702,0.5506889158067426,-13.895168304705239,19.503621131661095,-518.568167473902,-12.0
0.051,0.002218796437206642,-0.04691752929843242,0.5700158499615927,-14.41001957159044,19.150770876304758,-511.1518089838402,-12.0
0.052,0.002798329216673994,-0.06158190048817099,0.5889915027191782,-14.917506682328527,18.801052454157055,-503.83961495705415,-12.0
0.053,0.003396663334880919,-0.07675012075913666,0.6076189876503486,-15.417733061625803,18.454430127575076,-496.6301307193815,-12.0
0.054,0.004013452141205005,-0.09241497969330663,0.6259013836020575,-15.910800711747218,18.110868773851532,-489.52192172679713,-12.0
0.055,0.0046483520578070444,-0.10856936852720682,0.643841734441462,-16.396810205327103,17.770333887801147,-482.51357366663245,-12.0
0.056,0.005301022549106188,-0.12520627886528696,0.6614430496090031,-16.875860703574123,17.432791573283914,-475.6036921993359,-12.0
0.057,0.005971126077142235,-0.14231880094059726,0.6787083048757322,-17.348049980891254,17.098208531927725,-468.7909026094216,-12.0
0.058,0.006658328070249805,-0.1599001223031474,0.6956404429073673,-17.81347444343494,16.766552054481753,-462.0738495421994,-12.0
0.059,0.007362296875565725,-0.1779435259909664,0.7122423740595465,-18.272229155002503,16.437790008977263,-455.45119663677406,-12.0
0.06,0.008082703708111025,-0.19644238859188784,0.7285169772217006,-18.72440786446734,16.111890828207773,-448.92162613712725,-12.0
0.061,0.008819222665181894,-0.21539018039716756,0.7444670997246398,-19.17010300357903,15.788823510079872,-442.48383892264997,-12.0
0.062,0.00957153067756489,-0.2347804635324157,0.7600955581529341,-19.609405713418337,15.468557605502996,-436.1365541330826,-12.0
0.063,0.010339307478913682,-0.2546068906705399,0.7754051388965951,-20.042405862606724,15.151063209854252,-429.87850891015415,-12.0
0.064,0.011122235575959285,-0.2748632037724329,0.790398598689602,-20.46919206512202,14.836310954608171,-423.7084581447897,-12.0
0.065,0.011920000210139087,-0.2955432325650359,0.8050786652570833,-20.88985170182583,14.524271997383892,-417.6251741718119,-12.0
0.066,0.012732289337601298,-0.31664089358569875,0.8194480377252983,-21.304470933984426,14.214918015388978,-411.627446577885,-12.0
0.067,0.013558793602393015,-0.33815018901818494,0.8335093871176334,-21.713134719734203,13.908221197606766,-405.714081967804,-12.0
0.068,0.014399206306838162,-0.3600652054435137,0.8472653568852089,-22.1159268317501,13.604154236467261,-399.8839037137635,-12.0
0.069,0.01525322338472156,-0.38238011267834054,0.860718563400041,-22.512929873675628,13.30269032003908,-394.1357517221375,-12.0
0.07,0.01612054337145285,-0.4050891625222592,0.8738715964843473,-22.90422529783858,13.00380312367256,-388.46848218207197,-12.0
0.071,0.017000867372549685,-0.42818668745501187,0.8867270199592373,-23.28989342367335,12.70746680133933,-382.88096730407875,-12.0
0.072,0.01789389904925078,-0.4516670998592164,0.8992873719775158,-23.670013448717572,12.413655980110471,-377.37209516364567,-12.0
0.073,0.018799344589186813,-0.4755248907871981,0.911555165541743,-24.04466346604859,12.122345751904826,-371.9407694537645,-12.0
0.074,0.01971691268159155,-0.4997546288680927,0.9235328889638749,-24.413920479737197,11.83351166607246,-366.585909265497,-12.0
0.075,0.020646314493027805,-0.5243509592322222,0.9352230063166986,-24.777860420056015,11.547129722078715,-361.3064488720072,-12.0
0.076,0.021587263636956677,-0.5493086022529206,0.9466279579574453,-25.13655816126471,11.263176361106614,-356.10133747615976,-12.0
0.077,0.022539476155990702,-0.5746223526696581,0.9577501608969179,-25.490087534009394,10.98162845991243,-350.96953903426106,-12.0
0.078,0.02350267050050686,-0.6002870786039312,0.9685920092105179,-25.83852133923519,10.702463324045564,-345.91003205840616,-12.0
0.079,0.02447656750448139,-0.6262977204937109,0.9791558744808014,-26.181931363247607,10.425658680585522,-340.9218094025806,-12.0
0.08,0.025460890363617174,-0.6526492900982076,0.989444106210561,-26.520388391779786,10.15119267129364,-336.00387806281674,-12.0
0.081,0.026455364609686914,-0.6793368693919829,0.9994590322796477,-26.853962225621558,9.87904384511099,-331.15525895526827,-12.0
0.082,0.02745971808279095,-0.7063556093988999,1.00920295942505,-27.182721697097154,9.609191150300706,-326.3749866822868,-12.0
0.083,0.0284736809270265,-0.7337007297236212,1.018678173436866,-27.506734676688794,9.341613930707975,-321.66210943780874,-12.0
0.084,0.02949698556372678,-0.7613675174183387,1.027886939622791,-27.82606808904911,9.07629191809599,-317.0156887800095,-12.0
0.085,0.030529366671290213,-0.7893513260471546,1.0368315031912831,-28.14078792622052,8.81320522564906,-312.43479944344256,-12.0
0.086,0.03157056116597021,-0.817647574780819,1.0455140896212651,-28.450959260424707,8.552334341655715,-307.91852915725764,-12.0
0.087,0.032620308183147644,-0.846251747507621,1.0539369050241283,-28.75664625662275,8.293660123288113,-303.46597846666083,-12.0
0.088,0.03367834905908613,-0.8751593919604339,1.0621021364980359,-29.05791218484595,8.037163790478136,-299.0762605576179,-12.0
0.089,0.03474442729617348,-0.9043661183570599,1.0700119526798197,-29.354819439401552,7.782826916924863,-294.74850098436883,-12.0
0.09,0.03581828853162697,-0.9338675981449223,1.077668504253167,-29.647429556603093,7.530631421719244,-290.48183741780065,-12.0
0.091,0.03689968056682431,-0.963659564541305,1.0850739237226739,-29.935803207132683,7.2805595715600155,-286.2754197524489,-12.0
0.092,0.0379883533287074,-0.9937378110657683,1.0922303260064854,-30.220000216768153,7.032593971131616,-282.12840981250946,-12.0
0.093,0.039084058852234385,-1.0240981906971747,1.0991398087728366,-30.500079578284808,6.786717557168259,-278.0399811826164,-12.0
0.094,0.04018655126395721,-1.0547366150658832,1.1058044527611288,-30.7760994628592,6.542913592728668,-274.00931904566227,-12.0
0.095,0.04129558676602573,-1.0856490536604377,1.1122263220959845,-31.048117231267025,6.301165661559642,-270.03562002353226,-12.0
0.096,0.042410923620618504,-1.1168315330487517,1.1184074645942792,-31.31618944487512,6.061457662548914,-266.1180920207519,-12.0
0.097,0.04353232211528689,-1.1482801355471346,1.1243499123009373,-31.580371884437593,5.82377380094386,-262.2559539578325,-12.0
0.098,0.04465954454376631,-1.1799909983405785,1.1300556818359657,-31.840719562512046,5.588098582221445,-258.44843559479585,-12.0
0.099,0.04579235522856307,-1.2119603138182824,1.1355267742348312,-32.097286718696765,5.354416813091275,-254.6947775975217,-12.0
0.1,0.04693052048701433,-1.2441843282697866,1.1407651754700043,-32.350126838040666,5.122713592888554,-250.99423127656428,-12.0
0.101,0.048073808616722606,-1.27665934114583,1.1457728567365266,-32.599292661469484,4.892974308284877,-247.3460584388213,-12.0
0.102,0.049221989881546455,-1.3093817043374678,1.150551774728991,-32.84483619595298,4.66518462811198,-243.74953124286878,-12.0
0.103,0.05037483649796573,-1.342347821468171,1.1551038719121267,-33.08680872448753,4.439330498267905,-240.20393205691033,-12.0
0.104,0.05153212262182153,-1.3755541471989121,1.1594310767849916,-33.32526081589422,4.2153981367057956,-236.7085533193419,-12.0
0.105,0.05269362431328203,-1.4089971859114738,1.1635353044106114,-33.56024234341282,3.9933740247892553,-233.2626972750055,-12.0
0.106,0.053859119529622856,-1.4426734911911456,1.167418456602441,-33.79180249198546,3.773244903334587,-229.86567587130432,-12.0
0.107,0.05502838814000417,-1.4765796659420694,1.1710824218390565,-34.01998975658876,3.5549977723647004,-226.51681078083794,-12.0
0.108,0.056201211896705364,-1.5107123612569544,1.174529075711464,-34.24485195818813,3.338619883578084,-223.21543317498677,-12.0
0.109,0.05737737442284796,-1.5450682757615741,1.1777602811662478,-34.466436252974134,3.1240987356052754,-219.96088359244985,-12.0
0.11,0.0585566612004462,-1.5796441549709022,1.1807778887428981,-34.684789141433264,2.9114220693416026,-216.75251181013104,-12.0
0.111,0.05973885955878383,-1.6144367906568462,1.1835837368053423,-34.89995647725388,2.7005778633562993,-213.5896767163629,-12.0
0.112,0.06092375866301405,-1.6494430202246626,1.1861796517689698,-35.11198347610853,2.49155432936107,-210.47174618588627,-12.0
0.113,0.06211114947965158,-1.6846597254381197,1.1885674486168587,-35.320914733660295,2.284339903876286,-207.39809682447776,-12.0
0.114,0.06330082477970242,-1.720083832211639,1.190748930940509,-35.52679422845526,2.0789232461500475,-204.3681139271865,-12.0
0.115,0.06449257914507077,-1.7557123104975019,1.1927258909376262,-35.72966532346776,1.8752932366434036,-201.38119145561808,-12.0
0.116,0.06568620894533989,-1.7915421733374353,1.1945001097811583,-35.929570779481196,1.6734389706349733,-198.4367318479619,-12.0
0.117,0.06688151232729653,-1.8275704762770244,1.1960733578262197,-36.12655276332894,1.4733497539586002,-195.53414590166722,-12.0
0.118,0.06807828920473738,-1.8637943167904758,1.1974473948117683,-36.32065285598795,1.2750150988115614,-192.67285265821053,-12.0
0.119,0.06927634124855787,-1.9002108337157333,1.1986239700570385,-36.511912060525205,1.0784247196335501,-189.85227928995428,-12.0
0.12,0.07047547187670411,-1.9368172066882579,1.199604822658153,-36.7003708100625,0.8835685289883024,-187.0718609867547,-12.0
0.121,0.07167548622154081,-1.97361065494718,1.2003916819756908,-36.88606898464309,0.6904366297825044,-184.33104071677857,-12.0
0.122,0.07287619114005792,-2.0105884373391483,1.2009862675657483,-37.06904591110988,0.49901931450449855,-181.62926922741343,-12.0
0.123,0.0740773952137547,-2.047747852036657,1.2013902892431274,-37.24934036703311,0.3093070628034127,-178.96600498896083,-12.0
0.124,0.07527890873016567,-2.0850862357466458,1.2016054473807336,-37.42699059186731,0.12129053609629903,-176.34071403617472,-12.0
0.125,0.07648054367391703,-2.122600963187489,1.201633433083932,-37.60203429430109,-0.06503942624292058,-173.75286986361587,-12.0
0.126,0.07768211371802616,-2.160289446575243,1.2014759283601617,-37.7745086594753,-0.24969181062886747,-171.20195332287645,-12.0
0.127,0.07888343421544398,-2.198149135119146,1.201134606283818,-37.944450356069275,-0.43267543294436006,-168.68745252168037,-12.0
0.128,0.08008432219132766,-2.236177514539892,1.2006111311498346,-38.111895543063554,-0.6139989420748035,-166.20886272756732,-12.0
0.129,0.08128459630616416,-2.274372105782148,1.1999071590180164,-38.27687988794783,-0.7936708281654319,-163.76568610983279,-12.0
0.13,0.08248407688236767,-2.3127304654896577,1.199024337401831,-38.43943855989151,-0.9716994205107596,-161.35743183533333,-12.0
0.131,0.08368258589009278,-2.3512501853519616,1.1979643055045055,-38.599606238942535,-1.1480928920615616,-158.98361593777756,-12.0
0.132,0.08487994693565207,-2.3899288915258525,1.1967286944186084,-38.75741712416433,-1.322859263480912,-156.64376120203477,-12.0
0.133,0.08607598525379294,-2.428764244166363,1.1953191272722379,-38.912904940216535,-1.4960064065445184,-154.33739707045004,-12.0
0.134,0.0872705277002027,-2.467753936966605,1.1937372193706683,-39.066102943809895,-1.6675420474768963,-152.06405955095022,-12.0
0.135,0.0884634027442374,-2.506895696706335,1.1919845783335192,-39.2170439300369,-1.837473770223899,-149.8232911269181,-12.0
0.136,0.08965444045997664,-2.5461872827568572,1.190062804254114,-39.365760239323606,-2.005809019971122,-147.6146406582984,-12.0
0.137,0.0908434724941323,-2.5856264859495894,1.1879734901827985,-39.512283773435634,-2.1725551104101823,-145.43766315473698,-12.0
0.138,0.09203033209212202,-2.62521112905266,1.1857182217914584,-39.656645988604076,-2.337719221491805,-143.29191987213704,-12.0
0.139,0.09321485408860207,-2.6649390662690444,1.1832985775361835,-39.798877902573494,-2.5013084029470773,-141.17697821244278,-12.0
0.14,0.09439687489422101,-2.704808182632935,1.1807161288717014,-39.9390101030978,-2.663329578397856,-139.09241160296958,-12.0
0.141,0.0955762324890031,-2.7448163935916527,1.1779724403712841,-40.07707275379616,-2.8237895483584055,-137.0377994130621,-12.0
0.142,0.09675276641587897,-2.784961644594165,1.1750690698432311,-40.21309559991482,-2.9826949931854516,-135.01272687209487,-12.0
0.143,0.09792631777435755,-2.8252419106860525,1.1720075684440106,-40.34710797399711,-3.140052475977485,-133.01678498878357,-12.0
0.144,0.0990967292143333,-2.865655196110748,1.168789480788142,-40.4791388014641,-3.295868445424344,-131.04957047177118,-12.0
0.145,0.10026384493002273,-2.9061995339168893,1.1654163450548993,-40.60921660610826,-3.450149238607983,-129.11068565145743,-12.0
0.146,0.10142751065402421,-2.9468729855716194,1.1618896930919185,-40.73736951550242,-3.602901083755353,-127.19973840303655,-12.0
0.147,0.10258757364364529,-2.9876736403616073,1.1582110506296368,-40.863625269431864,-3.7541301042422486,-125.31634202681028,-12.0
0.148,0.10374388265216335,-3.028599614378065,1.1543819377129338,-40.98801123425105,-3.90384232506133,-123.46011504475243,-12.0
0.149,0.10489628792257175,-3.069649050128991,1.150403868805424,-41.11055440830775,-4.052043675545039,-121.63068112336875,-12.0
0.15,0.1060446411366492,-3.1108201214326914,1.146278347269293,-41.23128133486908,-60.33342229227737,1315.7059667384342,12.0
0.151,0.1071608733482919,-3.151396668133242,1.0863063639268917,-39.924919446880565,-59.61169227368066,1297.0615888663365,12.0
0.152,0.10821749329780385,-3.190676131505485,1.0270526836538865,-38.637071212502235,-58.89679950983481,1278.6780465454708,12.0
0.153,0.10921521588624994,-3.228676895397713,0.9685105188696338,-37.367477626722675,-58.188644915311976,1260.5516872679968,12.0
