Time[sec],x1[k+1],x2[k+1],x3[k+1],x4[k+1]
0.001,-1.3961208525269318e-05,0.0003571746085478457,-0.02785025855246564,0.7126494745066222
0.002,-5.5556677980130365e-05,0.0014219183130473846,-0.0552691283536485,1.4151600574211043
0.003,-0.00012435704512875944,0.003184162529312611,-0.08226073661931751,2.107674012022778
0.004,-0.0002199370896991231,0.005633980912430063,-0.10882915779522656,2.7903315973675356
0.005,-0.0003418756401680536,0.008761586397795151,-0.13497841482326034,3.463271110149482
0.006,-0.0004897555227520343,0.012557329255144228,-0.16071247999433858,4.126628912251528
0.007,-0.0006631635110014773,0.01701169516071149,-0.18603527579286377,4.780539458039005
0.008,-0.0008616902763351307,0.022115303300327512,-0.2109506757270936,5.425135321214565
0.009,-0.0010849303406414578,0.02785890454013841,-0.23546250512871442,6.0605472207146
0.01,-0.0013324820307152859,0.03423337965650092,-0.2595745419253449,6.686904045766708
0.011,-0.001603947424464315,0.04122973729926376,-0.2832905175348281,7.304332884726786
0.012,-0.0018989323049227284,0.048839112207893574,-0.3066141176440231,7.9129590503316924
0.013,-0.0022170461136492648,0.05705276340761573,-0.32954898299672425,8.512906105235242
0.014,-0.002557901906623683,0.06586207248646929,-0.3520987101446509,9.104295886397155
0.015,-0.0029211167577839732,0.07525855381031585,-0.3742668435780941,9.68724833294955
0.016,-0.0032923487444100827,0.08487663183054159,-0.3682066519219742,9.54923280761479
0.017,-0.0036575489886693413,0.09435766508321605,-0.36220324104254253,9.413154245402932
0.018,-0.004016773920137291,0.103703576948436,-0.356255911065449,9.278985563616416
0.019,-0.004370079274697092,0.11291626392554086,-0.3503639736395543,9.146700054858291
0.02,-0.004717520105686589,0.12199759599497709,-0.34452675197349936,9.016271387117653
0.021,-0.005059150795215223,0.1309494169859369,-0.33874358066548893,8.887673598555622
0.022,-0.00539502506557487,0.1397735449474685,-0.33301380553131915,8.760881092241904
0.023,-0.005725195990451792,0.1484717725132649,-0.3273367834352877,8.635868630980982
0.024,-0.006049716005876023,0.1570458672583325,-0.3217118821247212,8.512611332253329
0.025,-0.006368636920846096,0.16549757204576887,-0.3161384800688649,8.391084663296667
0.026,-0.0066820099260578875,0.17382860531574,-0.3106159663233394,8.271264437005806
0.027,-0.00698988560717651,0.18204066151302528,-0.3051437403333053,8.15312680587009
0.028,-0.007292313955672343,0.19013541144025162,-0.29972121176949584,8.036648256963234
0.029,-0.007589344378770769,0.19811450258407848,-0.29434780037620883,7.921805607316224
0.03,-0.007881025709818284,0.2059795594540712,-0.28902293581368554,7.808575999110507
0.031,-0.008167406218475831,0.21373218391628906,-0.2837460575028243,7.696936894946045
0.032,-0.008448533620407025,0.22137395551148992,-0.2785166144766994,7.586866073327225
0.033,-0.00872445507566297,0.22890643142976924,-0.2733340653841736,7.478341629014403
0.034,-0.008995217208261876,0.23633114712931652,-0.2681978782083525,7.371341964253328
0.035,-0.009260866118363131,0.2436496167300692,-0.26310753008468835,7.265845783192505
0.036,-0.009521447387387711,0.25086333319296034,-0.2580625072139974,7.1618320893370235
0.037,-0.009777006086699682,0.2579737686073607,-0.25306230472757435,7.059280181470104
0.038,-0.010027586786086775,0.2649823744723816,-0.2481064265550204,6.95816964966159
0.039,-0.010273233562140934,0.2718905819751945,-0.24319438529340243,6.858480371318697
0.04,-0.010513990015538075,0.27869980254790516,-0.23832570195447245,6.760192503293187
0.041,-0.01074989927288357,0.2854114279417192,-0.23349990592326614,6.663286480822459
0.042,-0.010981003989726268,0.29202683033781024,-0.22871653490065552,6.567743015951036
0.043,-0.011207346362375283,0.2985473627337264,-0.2239751347252833,6.473543092051204
0.044,-0.011428968135586142,0.30497435920071664,-0.21927525925203972,6.38066796017108
0.045,-0.011645910610070467,0.3113091351356837,-0.21461647023291733,6.289099135458811
0.046,-0.011858214649844913,0.31755298750825056,-0.20999833720003017,6.198818393655951
0.047,-0.012065920701796962,0.3237071954878452,-0.20542043718202532,6.109807762210581
0.048,-0.012269068798018123,0.3297730205350204,-0.20088235465543713,6.0220495189757965
0.049,-0.012467698551528305,0.3357517062873735,-0.19638368158612607,5.935526193816274
0.05,-0.01266184917066754,0.34164447902607387,-0.1919240172161566,5.8502205619946235
0.051,-0.012851559466173461,0.3474525479150532,-0.1875029679503785,5.766115640776386
0.052,-0.013036867858119814,0.3531771052359885,-0.18312014724487524,5.683194686094635
0.053,-0.01321781238271601,0.3588193266190763,-0.17877517549727942,5.601441189274189
0.054,-0.013394430702592053,0.36438037138442975,-0.17446767988938439,5.520838872190407
0.055,-0.013566760113442426,0.3698613827683109,-0.1701972942795214,5.441371684057786
0.056,-0.01373483754509838,0.37526348797302933,-0.16596365917110661,5.363023800713904
0.057,-0.013898699570873406,0.38058779847915924,-0.1617664215680007,5.285779620191333
0.058,-0.014058382413892954,0.3858354102624,-0.15760523487108233,5.209623759638978
0.059,-0.014213921953291601,0.3910074040064334,-0.15347975877660022,5.1345410523001345
0.06,-0.014365353730284414,0.39610484531198886,-0.14938965917621277,5.06051654454426
0.061,-0.014512712956839606,0.4011287849889145,-0.1453346080214848,4.987535491724393
0.062,-0.014656034523020691,0.40608025930611497,-0.1413142832065176,4.915583354630761
0.063,-0.014795352996744903,0.4109602900003274,-0.13732836855407954,4.844645799356506
0.064,-0.014930702632394995,0.4157698845668949,-0.13337655368084247,4.774708693173654
0.065,-0.015062117376512777,0.4205100364578697,-0.1294585339024269,4.705758101720279
0.066,-0.015189630873328008,0.4251817252750901,-0.12557401014066444,4.637780286258846
0.067,-0.015313276470173562,0.4297859169598497,-0.12172268883238223,4.5707617009828265
0.068,-0.015433087224501228,0.43432356403340255,-0.11790428181654394,4.504688989604221
0.069,-0.015549095911848063,0.4387956058677363,-0.11411850620853105,4.43954898151297
0.07,-0.015661335024377193,0.44320296865830916,-0.11036508440177581,4.375328692152624
0.071,-0.015769836779207683,0.4475465657067066,-0.1066437439371014,4.312015319011764
0.072,-0.015874633123245187,0.451827297592775,-0.10295421741933139,4.249596239179032
0.073,-0.015975755738102695,0.4560460523497951,-0.09929624243266798,4.188059006855202
0.074,-0.016073236044912925,0.4602037056364211,-0.09566956145751858,4.127391350911099
0.075,-0.016167105210427506,0.46430112094924775,-0.09207392177011749,4.067581171870893
0.076,-0.016257394154447956,0.4683391498774245,-0.08850907532433887,4.008616538300738
0.077,-0.016344133548486194,0.4723186320816745,-0.0849747787507853,3.9504856870957057
0.078,-0.016427353822601232,0.4762403955305644,-0.08147079324654755,3.893177020128039
0.079,-0.016507085170084396,0.48010525666929793,-0.0779968844937325,3.836679101849917
0.08,-0.016583357551842502,0.48391402057918437,-0.07455282258202925,3.780980657028186
0.081,-0.01665620070069988,0.48766748113472774,-0.07113838193235965,3.7260705685128306
0.082,-0.01672564412562134,0.4913664211584016,-0.0677533412215851,3.671937875038237
0.083,-0.016791717115943076,0.495011612575829,-0.06439748330711878,3.6185717690188213
0.084,-0.016854448748599204,0.49860381666468206,-0.06107059511194164,3.5659615930192574
0.085,-0.016913867889299213,0.5021437841148079,-0.05777246758960448,3.5140968388945844
0.086,-0.0169700031957012,0.5056322551508491,-0.05450289566285126,3.4629671460465334
0.087,-0.017022883122508464,0.5090699597150938,-0.05126167813682284,3.4125622988281235
0.088,-0.01707253592540719,0.512457617614291,-0.04804861762758965,3.3628722244579534
0.089,-0.017118989664953253,0.5157959386650369,-0.04486352049136483,3.313886990954787
0.09,-0.017162272210410726,0.5190856228378153,-0.04170619675436262,3.2655968050912523
0.091,-0.01720241124354482,0.5223273603997753,-0.038576460043265454,3.21799201036546
0.092,-0.01723943426046481,0.5255218319954825,-0.03547412754233699,3.1710630858502564
0.093,-0.017273368571646713,0.5286697086697775,-0.0323990199754087,3.124800645861599
0.094,-0.017304241313358795,0.5317716522546689,-0.029350961431957853,3.0791954344766497
0.095,-0.01733207944801191,0.5348283154030271,-0.026329779344590232,3.0342383250490013
0.096,-0.01735690976725555,0.5378403417100759,-0.023335304428973365,2.989920318481801
0.097,-0.017378758895298763,0.5408083658422453,-0.020367370620685506,2.946232541396798
0.098,-0.017397653292181244,0.5437330136646222,-0.01742581501273574,2.903166244323312
0.099,-0.017413619256996412,0.546614902367051,-0.014510477793731998,2.8607127999063526
0.1,-0.017426682930962993,0.549454640585583,-0.011621202188112308,2.818863701180629
0.101,-0.01743687029693348,0.5522528284103495,-0.008757834445085884,2.7776105614514766
0.102,-0.01744420718578963,0.5550100576134979,-0.0059202237334029205,2.736945111062453
0.103,-0.01744871928027131,0.5577269117953663,-0.0031082220712102798,2.6968591953197483
0.104,-0.017450432116597494,0.5604039664603452,-0.0003216842860903988,2.657344773411443
0.105,-0.0174493710872726,0.5630417891307633,0.002439532041112245,2.61839391678887
0.106,-0.01744556144384186,0.5656409394593241,0.005175566631771846,2.5799988075685647
0.107,-0.017439028299596798,0.568201969340126,0.007886556564283251,2.54215173695432
0.108,-0.017429796632231983,0.5707254230183021,0.010572636328200713,2.5048451036788397
0.109,-0.01741789128594047,0.5732118371816048,0.01323393787057802,2.468071412700906
0.11,-0.017403336973032032,0.5756617410366698,0.015870590635679954,2.431823274119364
0.111,-0.017386158278478035,0.5780756564806752,0.018482721645437936,2.396093400737581
0.112,-0.017366379661514345,0.5804540981775038,0.021070455538970773,2.360874606979021
0.113,-0.017344025457941493,0.5827975736567814,0.023633914621820035,2.3261598074792533
0.114,-0.017319119882445777,0.5851065834137898,0.026173218915485442,2.291942015665656
0.115,-0.017291687030873484,0.5873816210080475,0.0286884862063162,2.258214342356046
0.116,-0.01726175088245917,0.5896231731605864,0.031179832093769646,2.224969994375833
0.117,-0.017229335301987343,0.5918317198492321,0.03364737003773936,2.192202273203492
0.118,-0.017194464041244518,0.5940077343803807,0.03609121139569048,2.1599045739486864
0.119,-0.017157160741753896,0.5961516835038912,0.0385114654782904,2.1280703837203614
0.12,-0.017117448936960666,0.5982640275098297,0.04090823959715188,2.0966932802517357
0.121,-0.01707535205398653,0.6003452203110267,0.04328163910639571,2.06576693072607
0.122,-0.0170308934155696,0.6023957095320517,0.045631767446903254,2.0352850905117434
0.123,-0.016984096241961674,0.6044159365969755,0.04795872618997493,2.005241601914535
0.124,-0.016934983652783602,0.6064063368159442,0.05026261508040396,1.97563039294679
0.125,-0.016883578668839633,0.6083673394705892,0.0525435320789752,1.94644547611315
0.126,-0.016829904213787883,0.6102993678947332,0.05480157340292116,1.9176809472628387
0.127,-0.016773983115694065,0.6122028395513206,0.05703683356471977,1.88933098449542
0.128,-0.016715838109123592,0.6140781661281141,0.059249405418587614,1.861389846801399
0.129,-0.016655491836626988,0.6159257536127484,0.06143938019831693,1.8338518729946733
0.13,-0.016592966850335494,0.6177460023718109,0.06360684755669178,1.8067114805881845
0.131,-0.01652828561353183,0.6195393072292934,0.06575189560455307,1.7799631646785203
0.132,-0.016461470502184033,0.6213060575440015,0.06787461094933946,1.7536014968453622
0.133,-0.016392543806443144,0.6230466372859408,0.06997507873311372,1.7276211240654693
0.134,-0.016321527732088736,0.6247614251111425,0.07205338266984496,1.7020167676488354
0.135,-0.016248444401458506,0.6264507944193533,0.07410960507534722,1.6767832224172714
0.136,-0.01617331585531373,0.6281151134433286,0.07614382691053011,1.6519153554360848
0.137,-0.01609616405428391,0.6297547453241814,0.07815612781865683,1.6274081049430877
0.138,-0.016017010880012266,0.6313700481768625,0.0801465861583384,1.6032564794172324
0.139,-0.01593587813642905,0.6329613751601113,0.08211527903833957,1.5794555565841235
0.14,-0.015852787550991725,0.6345290745454643,0.08406228235190352,1.5560004824349234
0.141,-0.01576776077589257,0.6360734897853424,0.08598767081060314,1.5328864702583842
0.142,-0.01568081938923438,0.6375949595802334,0.08789151797772678,1.5101087996857445
0.143,-0.015591984896119479,0.6390938179431181,0.08977389630042329,1.4876628157746896
0.144,-0.015501278729528476,0.640570394256965,0.0916348771388603,1.4655439281914016
0.145,-0.015408722251403582,0.6420250133392973,0.09347453079825337,1.4437476102926934
0.146,-0.015314336753953025,0.6434579955143762,0.09529292656400243,1.4222693981005567
0.147,-0.01521814346099704,0.6448696566869447,0.09709013273739547,1.4011048892547306
0.148,-0.015120163528804477,0.6462603083989404,0.09886621666409137,1.3802497422061415
0.149,-0.01502041804614636,0.6476302578600126,0.10062124475149649,1.3596996757808548
0.15,-0.014918928010302823,0.6489798077357957,0.10235527840376908,1.3394505693766874
0.151,-0.014829675685901765,0.6506664331096047,0.07621813310088575,2.032147496131027
0.152,-0.014766354902320259,0.6530408206433362,0.050491513249824996,2.7149981546090114
0.153,-0.014728557171631983,0.6560931933776121,0.025171355589823065,3.3881407246689665
0.154,-0.014715878024633873,0.6598139108579988,0.00025364738549099597,4.051711481378451
0.155,-0.014727916974853527,0.6641934677717136,-0.024265573423277502,4.705844795052188
0.156,-0.014764277514227462,0.66922249379649,-0.048390218287477915,5.350673133391787
0.157,-0.014824567044357504,0.6748917510189881,-0.07212414917983044,5.9863270980347005
0.158,-0.014908396801049292,0.6811921310672303,-0.09547117984573349,6.61293546514676
0.159,-0.015015381754091983,0.6881146512710155,-0.11843507747355791,7.230625239769683
0.16,-0.015145140623119472,0.695650455378894,-0.14101956239907615,7.839521645689012
0.161,-0.015297295796178315,0.7037908104560782,-0.16322830945757377,8.43974816934536
0.162,-0.015471473286096589,0.712527105212194,-0.1850649487113706,9.031426583504365
0.163,-0.015667302848532672,0.7218508541222284,-0.20653306359896703,9.61467688886841
0.164,-0.015884417752186585,0.7317536890766598,-0.22763619463370327,10.18961743233146
0.165,-0.016122454760812727,0.7422273585123624,-0.2483778392087594,10.756364906512275
0.166,-0.01636709284904928,0.7529065509690681,-0.24091119601944602,10.602384952179133
0.167,-0.016604302743318217,0.7634328531965556,-0.23352132456462926,10.450579348944762
0.168,-0.016834160838673312,0.7738084243697171,-0.22620747080051654,10.300917719939106
0.169,-0.01705674278710073,0.7840353936731504,-0.2189688927478905,10.153370111808893
0.17,-0.01727212349720654,0.7941158602880022,-0.21180486049831976,10.007906994904356
0.171,-0.0174803771483793,0.8040518938888769,-0.2047146559837625,9.86449925623147
0.172,-0.017681577204131854,0.8138455351119388,-0.1976975727595129,9.723118192812779
0.173,-0.017875796435312494,0.8234987963903094,-0.19075291561521274,9.58373549983718
0.174,-0.018063106927419158,0.8330136621994786,-0.1838800004619227,9.44632326718006
0.175,-0.018243580088793242,0.8423920893353631,-0.17707815420391876,9.310853975460246
0.176,-0.01841728666720201,0.8516360075036886,-0.17034671446481628,9.177300487680107
0.177,-0.018584296750582374,0.8607473193712885,-0.16368502956187428,9.045636048496071
0.178,-0.01874467975456182,0.8697279001795385,-0.15709245868135877,8.915834289697493
0.179,-0.018898504476790576,0.8785795995701812,-0.1505683710380184,8.787869204316678
0.18,-0.019045839093880183,0.8873042415106178,-0.14411214590724875,8.661715147686017
0.181,-0.019186751170499613,0.8959036246236045,-0.13772317247144555,8.537346832761068
0.182,-0.01932130764963523,0.9043795219228302,-0.13140084993727874,8.414739333865574
0.183,-0.019449574881281233,0.9127336817641124,-0.12514458709840773,8.293868073204234
0.184,-0.01957161863520283,0.9209678282927869,-0.11895380212803015,8.174708814517285
0.185,-0.019687504107087632,0.9290836616819586,-0.11282792246683933,8.057237659699776
0.186,-0.019797295920852265,0.9370828582586582,-0.10676638476182006,7.941431047009549
0.187,-0.019901058133030825,0.944967070693415,-0.10076863477619175,7.827265748376342
0.188,-0.019998854258585698,0.952737928842355,-0.0948341270024553,7.714718857461661
0.189,-0.020090747273901,0.9603970398942807,-0.0889623245916696,7.603767787570187
0.19,-0.020176799623624876,0.9679459886350323,-0.08315269922943727,7.494390267898861
0.191,-0.020257073219822976,0.9753863374777759,-0.07740473111859208,7.386564343104035
0.192,-0.020331629459343886,0.9827196270477276,-0.07171790870915212,7.280268365009281
0.193,-0.02040052923784141,0.9899473766651014,-0.06609172847466714,7.175480985755949
0.194,-0.020463832953980726,0.997071084529218,-0.060525694824788236,7.0721811551898375
0.195,-0.020521600509991463,1.004092227792512,-0.05501932639372211,6.970348281556752
0.196,-0.020587852574472886,1.011369438562363,-0.07742238511693424,7.582610946123807
0.197,-0.02067632105304716,1.0192545454428494,-0.09945276611269879,8.186160984464825
0.198,-0.020786635100537205,1.0277388970844943,-0.12111412795570345,8.781120657844511
0.199,-0.02091842750933081,1.0368139635565512,-0.1424100878330029,9.36761060993881
0.2,-0.021071334667450183,1.0464713347512538,-0.16334421859133996,9.945749796170524
0.201,-0.021244996513968748,1.0567027186849602,-0.1839200494754034,10.515655507755044
0.202,-0.021439056495829983,1.0674999398476206,-0.20414106684427516,11.077443395061287
0.203,-0.021653161525134315,1.07885493756641,-0.22401071488112226,11.63122749077154
0.204,-0.021886961937325384,1.090759764400445,-0.24353239628887136,12.177120232600847
0.205,-0.02214011145001669,1.1032065845558394,-0.26270947297638475,12.71523248572786
0.206,-0.022412267122752325,1.1161876723313147,-0.2815452667305265,13.245673564792348
0.207,-0.022703089316975084,1.1296954105706298,-0.30004305988507834,13.768551255796014
0.208,-0.023012241657172902,1.1437222891535603,-0.31820609597185673,14.283971837456715
0.209,-0.02333939099207602,1.158260903488631,-0.3360375803710001,14.792040102537594
0.21,-0.023684209081074367,1.173304002596606,-0.3535406473271722,15.292858637642148
0.211,-0.024032404375864378,1.188487113092785,-0.34286823712803344,15.073881357830798
0.212,-0.02436998196526764,1.2034527960583448,-0.33230505648782477,14.857996307236265
0.213,-0.024697050545734248,1.2182041221642113,-0.32185003693306635,14.645160289277838
0.214,-0.02501371774991226,1.2327441190482902,-0.3115021273090025,14.435330715085602
0.215,-0.025320090163994287,1.2470757719242112,-0.3012602934972879,14.22846559486643
0.216,-0.025616273353526682,1.2612020244944986,-0.2911235179919737,14.024523524951668
0.217,-0.02590237187725157,1.275125779430539,-0.28109079967730904,13.823463680990084
0.218,-0.026178489303844896,1.2888498989638455,-0.2711611535532596,13.62524580956152
0.219,-0.026444728215407776,1.3023772050347946,-0.2613336106647149,13.429830226065441
0.22,-0.026701190237135002,1.3157104803172646,-0.2516072176274317,13.237177800189391
0.221,-0.02694797605128147,1.3288524687192809,-0.24198103639513607,13.047249948807481
0.222,-0.027185185404381713,1.3418058756680151,-0.23245414412523646,12.860008631936047
0.223,-0.027412917130380268,1.3545733689056325,-0.2230256328107723,12.675416341446953
0.224,-0.02763126916380273,1.3671575789685408,-0.2136946090570415,12.493436094269175
0.225,-0.02784033854962743,1.379561099567112,-0.20446019390338935,12.314031427000979
0.226,-0.02804022146342247,1.3917864882793054,-0.19532152250229176,12.137166386072838
0.227,-0.02823101322358074,1.4038362670032318,-0.1862777439080049,11.96280552132712
0.228,-0.02841280830140256,1.4157129223440996,-0.1773280208950566,11.790913880527878
0.229,-0.028585700340037736,1.4274189062713192,-0.1684715296539015,11.621457000041332
0.23,-0.028749782162588725,1.4389566364453579,-0.15970745963694033,11.454400900197621
0.231,-0.02890514578022461,1.4503284965449483,-0.15103501340439904,11.289712080647526
0.232,-0.02905188242181185,1.4615368372493607,-0.14245340617154256,11.127357506433404
