Time[sec],x1[k],x2[k],x3[k],x4[k],d/dt x3[k],d/dt x4[k],voltage
0.0,0.0,0.0,0.0,0.0,-28.067341181049954,717.7668185329665,12.0
0.001,-1.3961208525269318e-05,0.0003571746085478457,-0.02785025855246564,0.7126494745066222,-27.63387175677434,707.55614595235,12.0
0.002,-5.5556677980130365e-05,0.0014219183130473846,-0.0552691283536485,1.4151600574211043,-27.20455562351528,697.4887273095935,12.0
0.003,-0.00012435704512875944,0.003184162529312611,-0.08226073661931751,2.107674012022778,-26.779339969985248,687.5625580106137,12.0
0.004,-0.0002199370896991231,0.005633980912430063,-0.10882915779522656,2.7903315973675356,-26.358172863172317,677.7756618365709,12.0
0.005,-0.0003418756401680536,0.008761586397795151,-0.13497841482326034,3.463271110149482,-25.941003230414196,668.1260903516214,12.0
0.006,-0.0004897560145504375,0.012557341943573308,-0.16071247042136852,4.126628688064111,30.6069014146088,-776.9217113771609,-12.0
0.007,-0.0006352414904317759,0.016297356394414864,-0.130334750110809,3.3552403183402038,30.149287103497134,-765.881024920447,-12.0
0.008,-0.0007505773077317218,0.019271476913470014,-0.10041241053841704,2.594815018684916,29.69613007156677,-754.9952037164165,-12.0
0.009,-0.0008362166283569407,0.021490589504573884,-0.07094102350342199,1.845199012042003,29.247372465276126,-744.26208016533,-12.0
0.01,-0.0008926082146492642,0.022965427469113644,-0.04191621811218378,1.1062406718585176,28.80295737762468,-733.6795171178441,-12.0
0.011,-0.0009201964862046151,0.023706573540674264,-0.01333367991224961,0.3777904937395231,28.362828835375193,-723.2454074733522,-12.0
0.012,-0.0009194215746951957,0.023724461955041833,0.014810850017456786,-0.3402989338611928,27.926931785567383,-712.9576737643883,-12.0
0.013,-0.0008907193811106337,0.023029380598134728,0.04252157601222541,-1.0481729600552514,27.4952120815778,-702.8142677254192,-12.0
0.014,-0.0008345216308425959,0.021631473084503895,0.06980264873524367,-1.7459749009493608,27.06761646963536,-692.8131698756004,-12.0
0.015,-0.0007512559276319069,0.019540740799215636,0.09665816607444729,-2.4338460685557775,26.644092575586697,-682.9523891089026,-12.0
0.016,-0.0006413457992447458,0.01676704467275206,0.12309217391742247,-3.111925795918176,26.224588893335113,-673.2299623378376,-12.0
0.017,-0.0005052107517671146,0.013320107234317962,0.14910866705325562,-3.7803514661837365,25.80905477157407,-663.6439540813357,-12.0
0.018,-0.0003432663235829052,0.009209514655040866,0.1747115900696546,-4.439258541531802,25.397440400599283,-654.1924560546709,-12.0
0.019,-0.00015592413222412346,0.004444718561113173,0.19990483814495721,-5.088780588841332,24.989696800559138,-644.8735868055671,-12.0
0.02,5.640807473053923e-05,-0.0009649620243548963,0.22469225790050618,-5.72904930718478,24.585775808921706,-635.6854913244616,-12.0
0.021,0.0002933263693534593,-0.00701033875899074,0.2490776482442995,-6.360194555045631,24.185630068073003,-626.6263406586928,-12.0
0.022,0.0005544306026176657,-0.013682352360862291,0.27306476107153643,-6.982344373248015,23.789213014789212,-617.6943315873884,-12.0
0.023,0.00083932435651164,-0.02097207076377882,0.2966573020724502,-7.595625011073143,23.39647886833084,-608.887686251256,-12.0
0.024,0.0011476148971025831,-0.02887068730263924,0.31985893152572614,-8.200160951948865,23.007382618728357,-600.2046517884196,-12.0
0.025,0.001478913119855736,-0.0373695186529478,0.34267326520676844,-8.796074942626984,22.621880013554478,-591.6434999208934,-12.0
0.026,0.0018328335177021588,-0.04646000349419419,0.36510387495874674,-9.383488012091833,22.23992754916923,-583.2025266864113,-12.0
0.027,0.002208994135196208,-0.056133700731316905,0.3871542894699203,-9.962519496738304,21.86148245923857,-574.8800520815137,-12.0
0.028,0.0026070165251473342,-0.06638228779541563,0.40882799501424205,-10.533287064425874,21.48650270374349,-566.6744197205489,-12.0
0.029,0.003026525703232245,-0.07719755888303725,0.43012843622033065,-11.095906739403706,21.114946957616368,-558.583996482348,-12.0
0.03,0.0034671501094804937,-0.08857142341061897,0.45105901674124227,-11.650492924184709,20.74677460069419,-550.6071722000765,-12.0
0.031,0.003928521568550349,-0.10049590443221568,0.4716230999413215,-12.19715842194041,20.381945707446764,-542.7423593437173,-12.0
0.032,0.004410275249391098,-0.11296313703908793,0.49182400959155526,-12.736014459153154,20.020421036592865,-534.9879926989082,-12.0
0.033,0.0049120496240703145,-0.1259653667345323,0.511665030575249,-13.26717070861834,19.662162020565905,-527.3425290408284,-12.0
0.034,0.005433486429090775,-0.13949494788706387,0.5311494095585567,-13.790735311336515,19.307130755454388,-519.8044468237906,-12.0
0.035,0.005974230630251313,-0.15354434229467714,0.5502803556113103,-14.306814896831858,18.955289991615363,-512.3722458930948,-12.0
0.036,0.006533930384501064,-0.16810611765685363,0.5690610408685792,-14.815514604777038,18.606603123724508,-505.04444717839505,-12.0
0.037,0.007112237002705036,-0.18317294607600682,0.5874946011784643,-15.316938106200453,18.261034181002792,-497.8195923929741,-12.0
0.038,0.007708804911453801,-0.19873760253045958,0.6055841367616133,-15.81118762509577,17.91854781726795,-490.6962437273218,-12.0
0.039,0.00832329162146889,-0.2147929635527749,0.6233327127813306,-16.298363957124664,17.579109302225202,-483.67298358383385,-12.0
0.04,0.00895535769190232,-0.2313320057820857,0.6407433599675948,-16.77856649010218,17.242684511991822,-476.74841428628696,-12.0
0.041,0.009604666695804521,-0.24834780455385472,0.6578190752240727,-17.251893223951548,16.909239919845007,-469.92115779681654,-12.0
0.042,0.010270885181542233,-0.2658335323662281,0.6745628222863658,-17.718440792403317,16.578742586223612,-463.18985540821654,-12.0
0.043,0.01095368264725268,-0.28378245774892374,0.6909775322095872,-18.17830447900123,16.251160151148536,-456.5531675167677,-12.0
0.044,0.011652731507626624,-0.30218794389724224,0.7070661039542152,-18.631578236428766,15.926460825225806,-450.00977334808914,-12.0
0.045,0.012367707061615878,-0.3210434473357848,0.7228314049585917,-19.07835470541481,15.604613380824386,-443.55837068894016,-12.0
0.046,0.013098287461678723,-0.3403425166307603,0.7382762716901002,-19.51872523295132,15.28558714354224,-437.1976756287486,-12.0
0.047,0.013844153683642387,-0.3600787911225334,0.7534035101869909,-19.95277989022397,14.969351983789943,-430.9264223051947,-12.0
0.048,0.014604989497170514,-0.38024599967804146,0.76821589659101,-20.380607490261045,14.655878308489523,-424.7433626537759,-12.0
0.049,0.01538048142943456,-0.40083795923607235,0.7827161777651215,-20.802295608509212,14.345137051527141,-418.6472661159697,-12.0
0.05,0.016170318725922634,-0.4218485732660473,0.7969070719462226,-21.217930604630986,14.037099663682968,-412.6369193301134,-12.0
0.051,0.01697419334672823,-0.44327183131633946,0.8107912689444272,-21.627597628900883,13.73173810909147,-406.71112604011176,-12.0
0.052,0.017791799928245935,-0.4651018075028598,0.8243714307815602,-22.031380643579745,13.42902485534224,-400.86870679229276,-12.0
0.053,0.01862283575483583,-0.48733265930469816,0.83765019220121,-22.429362439948036,13.128932865418438,-395.1084986936577,-12.0
0.054,0.01946700073150927,-0.5099586263923838,0.8506301611643294,-22.821624654877144,12.831435589827077,-389.4293551766608,-12.0
0.055,0.020323997357022776,-0.5329740294699522,0.8633139193381985,-23.20824778720458,12.536506958808427,-383.8301457667597,-12.0
0.056,0.021193530697372766,-0.5563732691306089,0.8757040225788302,-23.589311213916172,12.244121374623417,-378.30975585269,-12.0
0.057,0.022075308363005322,-0.5801508248325009,0.8878030013571038,-23.964893204624065,11.954253704579596,-372.867086480861,-12.0
0.058,0.02296904048975209,-0.6043012539949756,0.899613361128441,-24.33507093433532,11.666879274798223,-367.5010541739436,-12.0
0.059,0.023874439706495856,-0.6288191906686542,0.9111375829025012,-24.699920502267535,11.381973861329886,-362.2105906638443,-12.0
0.06,0.0247912212648859,-0.6536993494181825,0.9223781195024556,-25.059516870411034,-45.035168642657304,1078.5389933020424,12.0
0.061,0.025691179871417218,-0.6782221524270681,0.8776369032540204,-23.988635445296005,-44.448268883464465,1063.2601227714542,12.0
0.062,0.02654668971726047,-0.7016816774978502,0.8334796186756466,-22.932925443065347,-43.8672781641103,1048.1953058019842,12.0
0.063,0.027358331815061233,-0.7240929902444573,0.7899004045667716,-21.892174473068852,-43.29211373584932,1033.3415457487713,12.0
0.064,0.028126681334962177,-0.7454709446373963,0.7468934755175737,-20.86617296066722,-42.72269408291896,1018.6958858342332,12.0
0.065,0.02885230767532091,-0.7658301855609081,0.7044531274137639,-19.854714281078067,-42.158939007878416,1004.2554110697074,12.0
0.066,0.029535772521722587,-0.7851851041878557,0.6625737633728053,-18.857595406900074,14.533912481476593,-445.51637967775184,-12.0
0.067,0.030205560707378225,-0.8042643893676419,0.6769502628710008,-19.299912056748255,14.219636498460053,-439.1337350230377,-12.0
0.068,0.03088956876884013,-0.8237828157497517,0.6910139611197569,-19.735891943569968,13.908236938071838,-432.8409040885711,-12.0
0.069,0.03158748530501088,-0.843734090439342,0.7047676856474361,-20.165623389037492,13.599684076650123,-426.63664542043034,-12.0
0.07,0.03229900176024604,-0.8641120090620912,0.7182142682494104,-20.589194345935354,13.293948183279603,-420.51972261840007,-12.0
0.071,0.03302381239582248,-0.8849104545773713,0.7313565112505266,-21.00669153940192,12.991000043176163,-414.4889166411029,-12.0
0.072,0.03376161426123744,-0.9061233960806679,0.7441971880081645,-21.418200483862584,12.690810949683657,-408.5430255656806,-12.0
0.073,0.034512107165172425,-0.9277448875869079,0.7567390434221842,-21.823805500231927,12.393352696131256,-402.68086434364636,-12.0
0.074,0.0352749936470755,-0.9497690668380071,0.7689847944343089,-22.22358973277296,12.098597567844308,-396.9012645615952,-12.0
0.075,0.036049978949498816,-0.9721901541364829,0.780937130515334,-22.617635165586574,11.80651833431554,-391.20307420714795,-12.0
0.076,0.03683677099103049,-0.9950024511990552,0.7925987141427945,-23.006022638817246,11.51708824149738,-385.585157438909,-12.0
0.077,0.037635080339357904,-1.0182003400146424,0.8039721812764815,-23.388831864796316,11.23028100411687,-380.0463943573035,-12.0
0.078,0.03844462018488337,-1.0417782817244878,0.8150601373785707,-23.766141330213944,-45.18861149499541,1060.947954657774,12.0
0.079,0.03923718381099749,-1.065016464248554,0.7701646622209237,-22.712729931696614,-44.60331284298868,1045.9103654773282,12.0
0.08,0.03998514364558503,-1.0872087189131188,0.7258515939822023,-21.674250477598235,-44.023777370170265,1031.0833984696235,12.0
0.081,0.04068907922848051,-1.1083698728443807,0.6821152133346506,-20.650493910175964,-43.44992432451306,1016.4641047123803,12.0
0.082,0.041349564421877996,-1.128514545670952,0.638949877670296,-19.6412540126488,-42.88167420417091,1002.0495755101106,12.0
0.083,0.04196716747787402,-1.1476571519949466,0.596350023352165,-18.646327460070285,-42.318948792766285,987.8369431273543,12.0
0.084,0.042542447659937484,-1.1658118238281474,0.5543102111626097,-17.665514950152403,14.37301076521831,-461.71024032540976,-12.0
0.085,0.04310389174500007,-1.1837070893183015,0.5685254538385203,-18.123915357053125,14.057979456170347,-455.1061790436385,-12.0
0.086,0.0436793940598327,-1.2020574687045522,0.5824271744078762,-18.575758301199613,13.745961124834118,-448.59509592980476,-12.0
0.087,0.04426864258420753,-1.2208564508270194,0.596018369723393,-19.021136109381967,13.436923638372818,-442.17569217254896,-12.0
0.088,0.044871328279656564,-1.240097616241054,0.6093020047613358,-19.4601398182256,13.130835405186074,-435.84668720217826,-12.0
0.089,0.045487145053390396,-1.2597746357585002,0.6222810132338703,-19.89285919481679,12.827665365232168,-429.6068183980159,-12.0
0.09,0.04611578973301139,-1.279881269413359,0.6349582980202486,-20.3193827513244,12.527382983127554,-423.45484088089836,-12.0
0.091,0.04675696203344117,-1.300411365119436,0.647336731728974,-20.739797763978498,12.229958239223835,-417.38952724387434,-12.0
0.092,0.04741036452784782,-1.3213588574754782,0.6594191571943542,-21.15419028995985,11.935361621634597,-411.4096673125166,-12.0
0.093,0.04807570261697867,-1.3427177665152326,0.6712083879985999,-21.56264518507061,11.64356411790955,-405.5140678941622,-12.0
0.094,0.04875268450124587,-1.3644821965511766,0.6827072089498802,-21.965246120075793,11.354537207299565,-399.7015525459811,-12.0
0.095,0.049441021151132476,-1.3866463349621447,0.6939183765870718,-22.36207559784126,11.068252852665243,-393.97096133175955,-12.0
0.096,0.0501404262802284,-1.4092044510698238,0.7048446196424035,-22.753214969210234,-45.349998869154646,1047.2124864693824,12.0
0.097,0.05085061632282718,-1.4321508951723503,0.7154886394293947,-23.138744446649845,-45.63088032547672,1052.7826442930161,12.0
0.098,0.051571310402025825,-1.455480097251961,0.7258531103854896,-23.518743122524175,-45.90910050898208,1058.2742609443094,12.0
0.099,0.05230223029628695,-1.4791865656299508,0.7359406806396822,-23.89328898811518,-46.18468559826388,1063.6884326041995,12.0
0.1,0.0530431004156274,-1.5032648859514721,0.7457539724237305,-24.262458947961978,-46.4576613267797,1069.026240098906,12.0
0.101,0.05379364777466762,-1.5277097200626026,0.7552955825345037,-24.626328835729275,-46.72805299039178,1074.2887491251795,12.0
0.102,0.05455360196620409,-1.552515804905207,0.7645680827879211,-24.98497342982327,9.13879690730315,-356.0566265939614,-12.0
0.103,0.05532269513695373,-1.577677951486703,0.7735740204372419,-25.33846646794423,8.873499199619909,-350.94157683888693,-12.0
0.104,0.05610066200051145,-1.603191045138334,0.7823159179767247,-25.68688064334679,8.610712230657033,-345.8987173415353,-12.0
0.105,0.05688723977654029,-1.629050043218292,0.7907962741643663,-26.030287637374716,8.350412391847312,-340.9270410602693,-12.0
0.106,0.057682168162238284,-1.65524997393238,0.7990175645115748,-26.368758136130555,8.092576476142689,-336.0255550091949,-12.0
0.107,0.058485189320807825,-1.6817859357432126,0.806982241492149,-26.702361838790033,7.837181673855879,-331.19328013993356,-12.0
0.108,0.05929604785989558,-1.7086530964317448,0.8146927349172092,-27.031167470852385,7.584205566279039,-326.42925115345247,-12.0
0.109,0.060114490810660955,-1.7358466921802471,0.8221514522999785,-27.355242797086277,7.333626119437182,-321.7325163162066,-12.0
0.11,0.06094026760585383,-1.7633620266247847,0.8293607792342103,-27.674654634907736,7.085421677655324,-317.10213727016696,-12.0
0.111,0.06177313003408521,-1.791194469145233,0.8363230801215609,-27.98946887856768,6.839570952412749,-312.5371886898336,-12.0
0.112,0.06261283221452654,-1.8193394538107628,0.8430406985985011,-28.299750514046288,6.596053015250015,-308.0367580707998,-12.0
0.113,0.06345913063512273,-1.847792480358669,0.8495159570320129,-28.60556360511959,6.354847303240019,-303.5999459263817,-12.0
0.114,0.06431178412075018,-1.8765491132490204,0.8557511521630949,-28.906971193175462,-50.01874867953802,1136.3077698402642,12.0
0.115,0.06514263120222501,-1.9048906248848094,0.8060480590777506,-27.77873691488771,-49.38845577147561,1120.1986529922783,12.0
0.116,0.06592408932503463,-1.9321119191610894,0.7569722198538416,-26.666498719521435,-48.764225902632866,1104.3150576382275,12.0
0.117,0.06665678272738992,-1.95822887998056,0.7085176147821273,-25.570032674635478,-48.14597314363374,1088.6538256048784,12.0
0.118,0.06734132965854779,-1.9832571684472962,0.6606783093119792,-24.48911798297096,-47.53361294796008,1073.2118431150268,12.0
0.119,0.0679783424877672,-2.007212226881287,0.6134484525518858,-23.423536932538852,-46.9270621296822,1057.9860400804548,12.0
0.12,0.06856842778179924,-2.030109281663836,0.5668222760119712,-22.373074856325456,-46.32623884471722,1042.973389530367,12.0
0.121,0.06911218636540338,-2.0519633455100097,0.5207940926094141,-21.33752010012042,-45.73106257586318,1028.1709071550415,12.0
0.122,0.06961021342421587,-2.072789221241194,0.47535829500061183,-20.316663969091618,-45.141454108408865,1013.5756505484725,12.0
0.123,0.07006309857117374,-2.092601504288368,0.43050935448514555,-19.310300692345322,-44.5573355139495,999.1847187059695,12.0
0.124,0.07047142593210962,-2.111414585847192,0.386241819614108,-18.31822737824826,-43.97863013022296,984.9952513910332,12.0
0.125,0.07083577421768882,-2.1292426555876975,0.3425503150013037,-17.340243976063185,-43.40526254383666,971.004428591742,12.0
0.126,0.07115671532318082,-2.1460996715339236,0.2994295662519826,-16.376153878554224,13.29752350726895,-478.3241580131672,-12.0
0.127,0.07146274284665331,-2.162713846861716,0.31257481122724395,-16.851060209480934,12.993503269674374,-471.5046545768829,-12.0
0.128,0.07178176413992339,-2.179799534852322,0.3254176384523948,-17.319195209308823,12.692681292683954,-464.7812487607904,-12.0
0.129,0.07211347837148921,-2.1973500117324716,0.33796122834307935,-17.780654294963995,12.395022604474923,-458.15259651938544,-12.0
0.13,0.07245758787316774,-2.21535864848168,0.3502087270398295,-18.235531559514357,12.100492782752863,-451.617372519381,-12.0
0.131,0.07281379812230702,-2.2338189101512484,0.36216324627054985,-18.683919770996177,11.80905795675178,-445.1742701578061,-12.0
0.132,0.07318181834780364,-2.252724378935275,0.37382784166422045,-19.125909881215588,-44.613997298523024,996.7116285085801,12.0
0.133,0.07353343634605924,-2.2713543011050596,0.32950508574097853,-18.136294212406014,-44.03240834528421,982.5529953186247,12.0
0.134,0.0738410214940948,-2.2890016538211504,0.285761251578284,-17.1607378300914,-43.45614061688897,968.5925699060351,12.0
0.135,0.07410515007406027,-2.3056803980536738,0.24259105514225196,-16.199043921406073,-42.885120372641765,954.827578353605,12.0
0.136,0.07432639310304039,-2.3214042986759105,0.19998928546597483,-15.25101842803629,-42.31927507940946,941.2552857427994,12.0
0.137,0.07450531641775882,-2.3361869276533582,0.15795080361070427,-14.316470010297047,-41.75853339732898,927.8729956466135,12.0
0.138,0.07464247996219521,-2.3500416499122583,0.11647055916791499,-13.395210436411817,14.93185699610127,-520.855581409441,-12.0
0.139,0.07476636360730034,-2.363696048547906,0.1312440338852486,-13.912351677788166,14.615667747315658,-513.4444665929921,-12.0
0.14,0.07490486320524078,-2.377863900347296,0.14570303424254247,-14.422134139956963,14.302899939049166,-506.1377320781414,-12.0
0.141,0.07505766598332404,-2.392537898392573,0.15985096126886567,-14.924661449201833,13.99351458328621,-498.9339171748117,-12.0
0.142,0.07522446253387678,-2.4077108380274956,0.1736911784735783,-15.420035813401318,13.687473284973677,-491.83158124571355,-12.0
0.143,0.07540494681175186,-2.423375616767957,0.18722701098641184,-15.908358000302476,13.384738255202034,-484.82930401760285,-12.0
0.144,0.07559881609815244,-2.439525232946275,0.20046174612883547,-16.389727356691925,13.085272302268729,-477.9256853093265,-12.0
0.145,0.07580577095611594,-2.4561527840413793,0.21339863411720406,-16.86424183200793,12.789038820721874,-471.1193446969198,-12.0
0.146,0.07602551515524757,-2.473251463808279,0.22604088925279203,-17.331998018913005,12.496001772604728,-464.40892093821475,-12.0
0.147,0.07625775564629259,-2.4908145613459567,0.23839169032287463,-17.793091166482814,12.206125681301774,-457.7930717857406,-12.0
0.148,0.0765022025368744,-2.5088354602105967,0.25045418098336125,-18.24761519275484,11.919375625686168,-451.27047380871005,-12.0
0.149,0.07675856903773226,-2.527307636381442,0.26223147060841395,-18.695662713485522,11.635717226819196,-444.83982198518436,-12.0
0.15,0.0770265714801513,-2.546224659063296,0.2737266095765669,-19.137324411721192,-44.77956533294016,997.0337983334705,12.0
0.151,0.07727800675749125,-2.5648658367125434,0.2292421702179328,-18.147392646977796,-44.190208714602406,982.8630607963972,12.0
0.152,0.07748525138244189,-2.582524134779095,0.18534441709035793,-17.171532180829093,-43.606179239331546,968.8907017550617,12.0
0.153,0.07764888938969665,-2.5992135258196924,0.14202806048445146,-16.20954604296055,-43.02740356875422,955.1139455344587,12.0
0.154,0.0777694995617775,-2.6149477868501227,0.09928788275238376,-15.261240001788332,-42.45380956149036,941.5300552306247,12.0
