Time[sec],x1[k+1],x2[k+1],x3[k+1],x4[k+1]
0.001,-1.3961208525269318e-05,0.0003571746085478457,-0.02785025855246564,0.7126494745066222
0.002,-5.5556677980130365e-05,0.0014219183130473846,-0.0552691283536485,1.4151600574211043
0.003,-0.00012435704512875944,0.003184162529312611,-0.08226073661931751,2.107674012022778
0.004,-0.0002199370896991231,0.005633980912430063,-0.10882915779522656,2.7903315973675356
0.005,-0.0003418756401680536,0.008761586397795151,-0.13497841482326034,3.463271110149482
0.006,-0.0004897560145504375,0.012557341943573308,-0.16071247042136852,4.126628688064111
0.007,-0.0006352414904317759,0.016297356394414864,-0.130334750110809,3.3552403183402038
0.008,-0.0007505773077317218,0.019271476913470014,-0.10041241053841704,2.594815018684916
0.009,-0.0008362166283569407,0.021490589504573884,-0.07094102350342199,1.845199012042003
0.01,-0.0008926082146492642,0.022965427469113644,-0.04191621811218378,1.1062406718585176
0.011,-0.0009201964862046151,0.023706573540674264,-0.01333367991224961,0.3777904937395231
0.012,-0.0009194215746951957,0.023724461955041833,0.014810850017456786,-0.3402989338611928
0.013,-0.0008907193811106337,0.023029380598134728,0.04252157601222541,-1.0481729600552514
0.014,-0.0008345216308425959,0.021631473084503895,0.06980264873524367,-1.7459749009493608
0.015,-0.0007512559276319069,0.019540740799215636,0.09665816607444729,-2.4338460685557775
0.016,-0.0006413457992447458,0.01676704467275206,0.12309217391742247,-3.111925795918176
0.017,-0.0005052107517671146,0.013320107234317962,0.14910866705325562,-3.7803514661837365
0.018,-0.0003432663235829052,0.009209514655040866,0.1747115900696546,-4.439258541531802
0.019,-0.00015592413222412346,0.004444718561113173,0.19990483814495721,-5.088780588841332
0.02,5.640807473053923e-05,-0.0009649620243548963,0.22469225790050618,-5.72904930718478
0.021,0.0002933263693534593,-0.00701033875899074,0.2490776482442995,-6.360194555045631
0.022,0.0005544306026176657,-0.013682352360862291,0.27306476107153643,-6.982344373248015
0.023,0.00083932435651164,-0.02097207076377882,0.2966573020724502,-7.595625011073143
0.024,0.0011476148971025831,-0.02887068730263924,0.31985893152572614,-8.200160951948865
0.025,0.001478913119855736,-0.0373695186529478,0.34267326520676844,-8.796074942626984
0.026,0.0018328335177021588,-0.04646000349419419,0.36510387495874674,-9.383488012091833
0.027,0.002208994135196208,-0.056133700731316905,0.3871542894699203,-9.962519496738304
0.028,0.0026070165251473342,-0.06638228779541563,0.40882799501424205,-10.533287064425874
0.029,0.003026525703232245,-0.07719755888303725,0.43012843622033065,-11.095906739403706
0.03,0.0034671501094804937,-0.08857142341061897,0.45105901674124227,-11.650492924184709
0.031,0.003928521568550349,-0.10049590443221568,0.4716230999413215,-12.19715842194041
0.032,0.004410275249391098,-0.11296313703908793,0.49182400959155526,-12.736014459153154
0.033,0.0049120496240703145,-0.1259653667345323,0.511665030575249,-13.26717070861834
0.034,0.005433486429090775,-0.13949494788706387,0.5311494095585567,-13.790735311336515
0.035,0.005974230630251313,-0.15354434229467714,0.5502803556113103,-14.306814896831858
0.036,0.006533930384501064,-0.16810611765685363,0.5690610408685792,-14.815514604777038
0.037,0.007112237002705036,-0.18317294607600682,0.5874946011784643,-15.316938106200453
0.038,0.007708804911453801,-0.19873760253045958,0.6055841367616133,-15.81118762509577
0.039,0.00832329162146889,-0.2147929635527749,0.6233327127813306,-16.298363957124664
0.04,0.00895535769190232,-0.2313320057820857,0.6407433599675948,-16.77856649010218
0.041,0.009604666695804521,-0.24834780455385472,0.6578190752240727,-17.251893223951548
0.042,0.010270885181542233,-0.2658335323662281,0.6745628222863658,-17.718440792403317
0.043,0.01095368264725268,-0.28378245774892374,0.6909775322095872,-18.17830447900123
0.044,0.011652731507626624,-0.30218794389724224,0.7070661039542152,-18.631578236428766
0.045,0.012367707061615878,-0.3210434473357848,0.7228314049585917,-19.07835470541481
0.046,0.013098287461678723,-0.3403425166307603,0.7382762716901002,-19.51872523295132
0.047,0.013844153683642387,-0.3600787911225334,0.7534035101869909,-19.95277989022397
0.048,0.014604989497170514,-0.38024599967804146,0.76821589659101,-20.380607490261045
0.049,0.01538048142943456,-0.40083795923607235,0.7827161777651215,-20.802295608509212
0.05,0.016170318725922634,-0.4218485732660473,0.7969070719462226,-21.217930604630986
0.051,0.01697419334672823,-0.44327183131633946,0.8107912689444272,-21.627597628900883
0.052,0.017791799928245935,-0.4651018075028598,0.8243714307815602,-22.031380643579745
0.053,0.01862283575483583,-0.48733265930469816,0.83765019220121,-22.429362439948036
0.054,0.01946700073150927,-0.5099586263923838,0.8506301611643294,-22.821624654877144
0.055,0.020323997357022776,-0.5329740294699522,0.8633139193381985,-23.20824778720458
0.056,0.021193530697372766,-0.5563732691306089,0.8757040225788302,-23.589311213916172
0.057,0.022075308363005322,-0.5801508248325009,0.8878030013571038,-23.964893204624065
0.058,0.02296904048975209,-0.6043012539949756,0.899613361128441,-24.33507093433532
0.059,0.023874439706495856,-0.6288191906686542,0.9111375829025012,-24.699920502267535
0.06,0.0247912212648859,-0.6536993494181825,0.9223781195024556,-25.059516870411034
0.061,0.025691179871417218,-0.6782221524270681,0.8776369032540204,-23.988635445296005
0.062,0.02654668971726047,-0.7016816774978502,0.8334796186756466,-22.932925443065347
0.063,0.027358331815061233,-0.7240929902444573,0.7899004045667716,-21.892174473068852
0.064,0.028126681334962177,-0.7454709446373963,0.7468934755175737,-20.86617296066722
0.065,0.02885230767532091,-0.7658301855609081,0.7044531274137639,-19.854714281078067
0.066,0.029535772521722587,-0.7851851041878557,0.6625737633728053,-18.857595406900074
0.067,0.030205560707378225,-0.8042643893676419,0.6769502628710008,-19.299912056748255
0.068,0.03088956876884013,-0.8237828157497517,0.6910139611197569,-19.735891943569968
0.069,0.03158748530501088,-0.843734090439342,0.7047676856474361,-20.165623389037492
0.07,0.03229900176024604,-0.8641120090620912,0.7182142682494104,-20.589194345935354
0.071,0.03302381239582248,-0.8849104545773713,0.7313565112505266,-21.00669153940192
0.072,0.03376161426123744,-0.9061233960806679,0.7441971880081645,-21.418200483862584
0.073,0.034512107165172425,-0.9277448875869079,0.7567390434221842,-21.823805500231927
0.074,0.0352749936470755,-0.9497690668380071,0.7689847944343089,-22.22358973277296
0.075,0.036049978949498816,-0.9721901541364829,0.780937130515334,-22.617635165586574
0.076,0.03683677099103049,-0.9950024511990552,0.7925987141427945,-23.006022638817246
0.077,0.037635080339357904,-1.0182003400146424,0.8039721812764815,-23.388831864796316
0.078,0.03844462018488337,-1.0417782817244878,0.8150601373785707,-23.766141330213944
0.079,0.03923718381099749,-1.065016464248554,0.7701646622209237,-22.712729931696614
0.08,0.03998514364558503,-1.0872087189131188,0.7258515939822023,-21.674250477598235
0.081,0.04068907922848051,-1.1083698728443807,0.6821152133346506,-20.650493910175964
0.082,0.041349564421877996,-1.128514545670952,0.638949877670296,-19.6412540126488
0.083,0.04196716747787402,-1.1476571519949466,0.596350023352165,-18.646327460070285
0.084,0.042542447659937484,-1.1658118238281474,0.5543102111626097,-17.665514950152403
0.085,0.04310389174500007,-1.1837070893183015,0.5685254538385203,-18.123915357053125
0.086,0.0436793940598327,-1.2020574687045522,0.5824271744078762,-18.575758301199613
0.087,0.04426864258420753,-1.2208564508270194,0.596018369723393,-19.021136109381967
0.088,0.044871328279656564,-1.240097616241054,0.6093020047613358,-19.4601398182256
0.089,0.045487145053390396,-1.2597746357585002,0.6222810132338703,-19.89285919481679
0.09,0.04611578973301139,-1.279881269413359,0.6349582980202486,-20.3193827513244
0.091,0.04675696203344117,-1.300411365119436,0.647336731728974,-20.739797763978498
0.092,0.04741036452784782,-1.3213588574754782,0.6594191571943542,-21.15419028995985
0.093,0.04807570261697867,-1.3427177665152326,0.6712083879985999,-21.56264518507061
0.094,0.04875268450124587,-1.3644821965511766,0.6827072089498802,-21.965246120075793
0.095,0.049441021151132476,-1.3866463349621447,0.6939183765870718,-22.36207559784126
0.096,0.0501404262802284,-1.4092044510698238,0.7048446196424035,-22.753214969210234
0.097,0.05085061632282718,-1.4321508951723503,0.7154886394293947,-23.138744446649845
0.098,0.051571310402025825,-1.455480097251961,0.7258531103854896,-23.518743122524175
0.099,0.05230223029628695,-1.4791865656299508,0.7359406806396822,-23.89328898811518
0.1,0.0530431004156274,-1.5032648859514721,0.7457539724237305,-24.262458947961978
0.101,0.05379364777466762,-1.5277097200626026,0.7552955825345037,-24.626328835729275
0.102,0.05455360196620409,-1.552515804905207,0.7645680827879211,-24.98497342982327
0.103,0.05532269513695373,-1.577677951486703,0.7735740204372419,-25.33846646794423
0.104,0.05610066200051145,-1.603191045138334,0.7823159179767247,-25.68688064334679
0.105,0.05688723977654029,-1.629050043218292,0.7907962741643663,-26.030287637374716
0.106,0.057682168162238284,-1.65524997393238,0.7990175645115748,-26.368758136130555
0.107,0.058485189320807825,-1.6817859357432126,0.806982241492149,-26.702361838790033
0.108,0.05929604785989558,-1.7086530964317448,0.8146927349172092,-27.031167470852385
0.109,0.060114490810660955,-1.7358466921802471,0.8221514522999785,-27.355242797086277
0.11,0.06094026760585383,-1.7633620266247847,0.8293607792342103,-27.674654634907736
0.111,0.06177313003408521,-1.791194469145233,0.8363230801215609,-27.98946887856768
0.112,0.06261283221452654,-1.8193394538107628,0.8430406985985011,-28.299750514046288
0.113,0.06345913063512273,-1.847792480358669,0.8495159570320129,-28.60556360511959
0.114,0.06431178412075018,-1.8765491132490204,0.8557511521630949,-28.906971193175462
0.115,0.06514263120222501,-1.9048906248848094,0.8060480590777506,-27.77873691488771
0.116,0.06592408932503463,-1.9321119191610894,0.7569722198538416,-26.666498719521435
0.117,0.06665678272738992,-1.95822887998056,0.7085176147821273,-25.570032674635478
0.118,0.06734132965854779,-1.9832571684472962,0.6606783093119792,-24.48911798297096
0.119,0.0679783424877672,-2.007212226881287,0.6134484525518858,-23.423536932538852
0.12,0.06856842778179924,-2.030109281663836,0.5668222760119712,-22.373074856325456
0.121,0.06911218636540338,-2.0519633455100097,0.5207940926094141,-21.33752010012042
0.122,0.06961021342421587,-2.072789221241194,0.47535829500061183,-20.316663969091618
0.123,0.07006309857117374,-2.092601504288368,0.43050935448514555,-19.310300692345322
0.124,0.07047142593210962,-2.111414585847192,0.386241819614108,-18.31822737824826
0.125,0.07083577421768882,-2.1292426555876975,0.3425503150013037,-17.340243976063185
0.126,0.07115671532318082,-2.1460996715339236,0.2994295662519826,-16.376153878554224
0.127,0.07146274284665331,-2.162713846861716,0.31257481122724395,-16.851060209480934
0.128,0.07178176413992339,-2.179799534852322,0.3254176384523948,-17.319195209308823
0.129,0.07211347837148921,-2.1973500117324716,0.33796122834307935,-17.780654294963995
0.13,0.07245758787316774,-2.21535864848168,0.3502087270398295,-18.235531559514357
0.131,0.07281379812230702,-2.2338189101512484,0.36216324627054985,-18.683919770996177
0.132,0.07318181834780364,-2.252724378935275,0.37382784166422045,-19.125909881215588
0.133,0.07353343634605924,-2.2713543011050596,0.32950508574097853,-18.136294212406014
0.134,0.0738410214940948,-2.2890016538211504,0.285761251578284,-17.1607378300914
0.135,0.07410515007406027,-2.3056803980536738,0.24259105514225196,-16.199043921406073
0.136,0.07432639310304039,-2.3214042986759105,0.19998928546597483,-15.25101842803629
0.137,0.07450531641775882,-2.3361869276533582,0.15795080361070427,-14.316470010297047
0.138,0.07464247996219521,-2.3500416499122583,0.11647055916791499,-13.395210436411817
0.139,0.07476636360730034,-2.363696048547906,0.1312440338852486,-13.912351677788166
0.14,0.07490486320524078,-2.377863900347296,0.14570303424254247,-14.422134139956963
0.141,0.07505766598332404,-2.392537898392573,0.15985096126886567,-14.924661449201833
0.142,0.07522446253387678,-2.4077108380274956,0.1736911784735783,-15.420035813401318
0.143,0.07540494681175186,-2.423375616767957,0.18722701098641184,-15.908358000302476
0.144,0.07559881609815244,-2.439525232946275,0.20046174612883547,-16.389727356691925
0.145,0.07580577095611594,-2.4561527840413793,0.21339863411720406,-16.86424183200793
0.146,0.07602551515524757,-2.473251463808279,0.22604088925279203,-17.331998018913005
0.147,0.07625775564629259,-2.4908145613459567,0.23839169032287463,-17.793091166482814
0.148,0.0765022025368744,-2.5088354602105967,0.25045418098336125,-18.24761519275484
0.149,0.07675856903773226,-2.527307636381442,0.26223147060841395,-18.695662713485522
0.15,0.0770265714801513,-2.546224659063296,0.2737266095765669,-19.137324411721192
0.151,0.07727800675749125,-2.5648658367125434,0.2292421702179328,-18.147392646977796
0.152,0.07748525138244189,-2.582524134779095,0.18534441709035793,-17.171532180829093
0.153,0.07764888938969665,-2.5992135258196924,0.14202806048445146,-16.20954604296055
0.154,0.0777694995617775,-2.6149477868501227,0.09928788275238376,-15.261240001788332
0.155,0.07784765549849496,-2.629740501981392,0.05711873780634258,-14.32642254384796
0.156,0.07788392568888033,-2.643605065155115,0.015515549919676167,-13.404904835067436
0.157,0.07787887358100044,-2.656554682805382,-0.025526687440063124,-12.496500683080766
0.158,0.07783305765051475,-2.6686023764795648,-0.06601291276052518,-11.601026500122341
0.159,0.07774703146813641,-2.6797609854240436,-0.10594799761907481,-10.718301266417498
0.16,0.07762134376612174,-2.690043169138629,-0.14533674780402658,-9.848146494015884
0.161,0.0774565385031123,-2.69946140987784,-0.18418390441336044,-8.99038619137643
0.162,0.07725315491630723,-2.7080280148698943,-0.2224941370359963,-8.144847029900482
0.163,0.07703965014512162,-2.716469471280935,-0.2045715582730405,-8.736656421836349
0.164,0.07684390012702606,-2.725498528825928,-0.18698399647278605,-9.320069195889555
0.165,0.07666557172933099,-2.735106849898188,-0.16972767930850619,-9.895203512280252
0.166,0.0765043355795791,-2.7452862146149735,-0.15279888042453205,-10.462175870145632
0.167,0.07635986601490226,-2.7560285189877862,-0.13619391864959232,-11.021101133425967
0.168,0.07623184169380055,-2.7673257955071726,-0.11990917072489067,-11.57209222542429
0.169,0.07609202034862533,-2.778455768786407,-0.1596415179693842,-10.689962993322505
0.17,0.0759127418932288,-2.7887099100319626,-0.19882417313222397,-9.820399044938895
0.171,0.07569455365190454,-2.7981006967652706,-0.23746187742684105,-8.963224850182964
0.172,0.07543799822329039,-2.8066404317950058,-0.2755593248361425,-8.11826692653819
0.173,0.07514361354327248,-2.814341245662819,-0.31312114704715627,-7.285354217203436
0.174,0.07481193252262908,-2.821215089649121,-0.3501519076068588,-6.4643182132808
0.175,0.07447140731427622,-2.827988127143744,-0.33095561268476154,-7.080291209312174
0.176,0.0741499077404673,-2.8353727615924016,-0.31209998952588835,-7.687532727448046
0.177,0.07384709506893804,-2.8433603230634685,-0.2935811668954395,-8.28616558041883
0.178,0.07356263441481245,-2.8519422635830973,-0.2753953214602948,-8.876310865589035
0.179,0.07329619469279469,-2.8611101554244076,-0.2575386772815072,-9.458087983199336
0.18,0.07304744877760759,-2.870855696224958,-0.24000751051057337,-10.031614522618462
0.181,0.07278815011900994,-2.880456328742232,-0.27849864501065696,-9.171707915864848
0.182,0.07249063302532095,-2.8892031979733415,-0.3164451642261148,-8.324059140212082
0.183,0.07215543977145134,-2.897108475718559,-0.3538517386713765,-7.488496533983549
0.184,0.07178310799249295,-2.904184163317446,-0.3907229775512931,-6.6648508354499025
0.185,0.07137417074332153,-2.9104420939943725,-0.4270634297948261,-5.852955149616156
0.186,0.07092915655892786,-2.915893935226939,-0.46287758509828314,-5.052644914684783
0.187,0.0704485895155817,-2.9205511911411652,-0.49816987497976617,-4.263757868140482
0.188,0.06993298928883913,-2.9244252048052948,-0.5329446737911218,-3.4861340142682846
0.189,0.06938287121120636,-2.9275271605125166,-0.5672062997252311,-2.719615591828406
0.19,0.0687987463206007,-2.9298680857690766,-0.6009590156997098,-1.9640470458968733
0.191,0.06818112141379559,-2.9314588534416797,-0.6342070303074308,-1.2192749974537347
0.192,0.06753049911061884,-2.932310184248769,-0.6669544989113094,-0.48514820810862436
0.193,0.06684737790107663,-2.9324326487053463,-0.6992055245098433,0.23848244744659286
0.194,0.06613225219640312,-2.931836669193224,-0.7309641586552728,0.9517640107589315
0.195,0.06538561238431415,-2.930532522171576,-0.76223440242919,1.6548414709169883
0.196,0.06460794488026805,-2.928530340256427,-0.793020207363909,2.34785779400172
0.197,0.0637997321672446,-2.925840113921168,-0.8233254762075576,3.030953947182798
0.198,0.0629614528468029,-2.9224716935715844,-0.8531540638430152,3.7042689281054613
0.199,0.06209358168522637,-2.9184347914593674,-0.8825097781400789,4.367939791995198
0.2,0.06119658966918476,-2.9137389839076566,-0.9113963809333976,5.022101683168791
0.201,0.06027094405726773,-2.9083937134022158,-0.9398175889454801,5.666887864647165
0.202,0.0593171084045756,-2.902408289801928,-0.9677770743526701,6.302429735329147
0.203,0.05833554261482828,-2.895791892450194,-0.995278465715269,6.9288568598887625
0.204,0.05732670298309707,-2.8885535719802706,-1.0223253487832311,7.546296994349319
0.205,0.05629104224154641,-2.88070225222161,-1.0489212673360266,8.154876113077288
0.206,0.055229009604166365,-2.8722467320738447,-1.0750697240089842,8.754718435318795
0.207,0.05414105079848008,-2.8631956869498905,-1.1007741809631744,9.34594644566821
0.208,0.05302760810880415,-2.853557670603354,-1.1260380606912164,9.928680919945078
0.209,0.051889120415107716,-2.843341116811081,-1.1508647467692084,10.50304094902976
0.21,0.05072602260744383,-2.8325543265399653,-1.175257571048348,11.069143691548419
0.211,0.049566670649030524,-2.821919879526824,-1.1435193517478308,10.201806569885118
0.212,0.04843883873694453,-2.812146629852557,-1.1122166354070104,9.346720158100268
0.213,0.04734209388552592,-2.8032224129735575,-1.0813443996233405,8.503712542661303
0.214,0.04627600809586765,-2.7951352350347145,-1.0508976921527093,7.672614221482676
0.215,0.04524015828698982,-2.7878732705020477,-1.0208716298502305,6.85325807086182
0.216,0.044234126226938425,-2.781424859789438,-0.9912613975907042,6.045479311839582
0.217,0.04325749846566189,-2.77577850694187,-0.9620622472169964,5.2491154773637945
0.218,0.04230986627191652,-2.7709228774448906,-0.9332694965515792,4.4640063812476525
0.219,0.04139082556209996,-2.766846795781258,-0.9048785282815714,3.689994083533204
0.22,0.04049997683448742,-2.763539243156641,-0.8768847889285086,2.926922858258773
0.221,0.039636925104889996,-2.7609893552697184,-0.8492837878404756,2.1746391618579883
0.222,0.038801279846502085,-2.7591864202029224,-0.8220710972313312,1.4329916284593545
0.223,0.03796473243593942,-2.7574055254271967,-0.850942864236989,2.1271298652230484
0.224,0.03709955516404107,-2.7549354731332154,-0.8793314916901875,2.811330057458204
0.225,0.03620622916268204,-2.7517861315057535,-0.907240987075764,3.4857315993310882
0.226,0.03528523157985334,-2.747967230312223,-0.934675310893552,4.150471939004181
0.227,0.03433703562610742,-2.7434883628303646,-0.9616383775085505,4.8056866059333805
0.228,0.03336211062032327,-2.7383589877559467,-0.9881340559922236,5.451509237882141
0.229,0.032360922032479915,-2.7325884310133226,-1.0141661709204728,6.088071606559231
0.23,0.03133393153007084,-2.726185887683119,-1.0397385032239461,6.715503644916081
0.231,0.030281597023484427,-2.719160423896729,-1.0648547910235708,7.333933473973833
0.232,0.02920437270886734,-2.7115209786499657,-1.0895187304300524,7.9434874285052715
0.233,0.0281027091108099,-2.703276365611012,-1.1137339763409106,8.544290082636039
0.234,0.026977052605166238,-2.694435261847191,-1.1375041328759716,9.136464069026495
