Time[sec],x1[k],x2[k],x3[k],x4[k],d/dt x3[k],d/dt x4[k],voltage
0.0,0.0,0.0,0.0,0.0,-28.067341181049954,717.7668185329665,12.0
0.001,-1.3961208525269318e-05,0.0003571746085478457,-0.02785025855246564,0.7126494745066222,-27.63387175677434,707.55614595235,12.0
0.002,-5.5556677980130365e-05,0.0014219183130473846,-0.0552691283536485,1.4151600574211043,-27.20455562351528,697.4887273095935,12.0
0.003,-0.00012435704512875944,0.003184162529312611,-0.08226073661931751,2.107674012022778,-26.779339969985248,687.5625580106137,12.0
0.004,-0.0002199370896991231,0.005633980912430063,-0.10882915779522656,2.7903315973675356,-26.358172863172317,677.7756618365709,12.0
0.005,-0.0003418756401680536,0.008761586397795151,-0.13497841482326034,3.463271110149482,-25.941003230414196,668.1260903516214,12.0
0.006,-0.0004897560101674506,0.012557341830492999,-0.16071247095296762,4.126628701474959,2.539560241381915,-59.15489303600788,0.0
0.007,-0.0006492027379324549,0.016654531908742186,-0.158185008703483,4.067889789981203,2.515415347840907,-58.32487892990009,0.0
0.008,-0.0008061340250147301,0.020693396140366555,-0.1556815389267734,4.009975073124281,2.491574448092572,-57.506476365956175,0.0
0.009,-0.0009605737127295366,0.024674752941362475,-0.15320176015998982,3.9528730211731014,2.468032492931645,-56.699522112684555,0.0
0.01,-0.0011125453434581848,0.028599409279768482,-0.150745375951837,3.8965722664685245,2.4447845077866046,-55.903855236775506,0.0
0.011,-0.0012620721655911672,0.03246816083558386,-0.1483120947889049,3.8410616011556864,2.421825591726158,-55.11931707099624,0.0
0.012,-0.001409177138446026,0.036281792159982194,-0.14590163002227546,3.7863299749262747,2.3991509164698175,-54.34575118222663,0.0
0.013,-0.0015538829368837727,0.04004107682524465,-0.1435136997982137,3.732366492892209,2.3767557254546885,-53.583003341353894,0.0
0.014,-0.001696211955892789,0.043746777573696286,-0.14114802698929532,3.6791604134734337,2.354635332908332,-52.83092149336702,0.0
0.015,-0.0018361863160529803,0.04739964649364237,-0.1388043391136849,3.6267011459034366,2.3327851227586156,-52.089355722043564,0.0
0.016,-0.001973827867980629,0.051000425164033136,-0.13648236826813628,3.574978248177519,2.311200547732492,-51.35815822089967,0.0
0.017,-0.002109158196970661,0.054549844805178264,-0.13418185105833655,3.523981424915414,2.2898771284183086,-50.63718326292856,0.0
0.018,-0.0022421986275773004,0.05804862642756499,-0.13190252853008105,3.4737005252507447,2.268810452339623,-49.92628717071874,0.0
0.019,-0.002372970228120553,0.06149748097839547,-0.12964414610144817,3.424125540752784,2.24799617304286,-49.225328287029214,0.0
0.02,-0.002501493813996712,0.06489710945159802,-0.1274064535110354,3.375246603865382,2.2274300094052797,-48.53416695268033,0.0
0.021,-0.0026277899498993685,0.06824820296456352,-0.12518920478082768,3.327053986817037,2.2071077451436594,-47.85266549110909,0.0
0.022,-0.002751878958454918,0.07155144303067462,-0.12299215809294656,3.279538097758703,2.187025227142505,-47.18068815371007,0.0
0.023,-0.002873780922622723,0.07480750164147694,-0.1208150757501208,3.232689479596906,2.167178364930117,-46.51810110330229,0.0
0.024,-0.0029935156895624757,0.0780170413936209,-0.11865772411646225,3.1864988081929355,2.1475631298847753,-45.864772388629305,0.0
0.025,-0.003111102874563974,0.08118071561769188,-0.11651987355740726,3.1409568905353025,2.128175554429616,-45.22057191848102,0.0
0.026,-0.00322656186489514,0.08429916850452779,-0.11440129838076009,3.0960546629477688,2.1090117312427274,-44.58537143631882,0.0
0.027,-0.003339911824366552,0.08737303525437082,-0.1123017767679034,3.051783188974257,2.0900678123276344,-43.95904449032811,0.0
0.028,-0.003451171699322714,0.09040294227140565,-0.11022109068544746,3.0081336566215007,2.071340007806427,-43.34146639438189,0.0
0.029,-0.0035603602182232765,0.09338950715484368,-0.1081590258846642,2.965097378480855,2.052824585955503,-42.73251422974772,0.0
0.03,-0.003667495896643759,0.09633333886217485,-0.10611537182666825,2.922665789413727,2.0345178721895376,-42.13206681231689,0.0
0.031,-0.003772597041031759,0.09923503783298598,-0.10408992162462677,2.8808304447950506,2.016416248286183,-41.54000466773047,0.0
0.032,-0.0038756817521827837,0.10209519610395965,-0.10208247198979155,2.8395830188815947,1.9985161516645111,-40.95621000827175,0.0
0.033,-0.003976767928641183,0.10491439742157782,-0.10009282317853888,2.798915303212764,1.9808140746773324,-40.3805667102183,0.0
0.034,-0.004075873271210327,0.10769321738972801,-0.09812077892429855,2.7588192045174367,1.9633065636910034,-39.812960284204614,0.0
0.035,-0.004173015291213791,0.11043222373519733,-0.09616614631841218,2.7192867409523673,1.945990217447636,-39.25327782197706,0.0
0.036,-0.004268211305945892,0.1131319761708042,-0.09422873586535885,2.680310044035195,1.9288616878761404,-38.70140802372485,0.0
0.037,-0.004361478444201334,0.11579302657520259,-0.09230836140077145,2.641881356095629,1.9119176789757968,-38.157241161995096,0.0
0.038,-0.004452833650089506,0.11841591911885943,-0.09040484003279094,2.6039930284884534,1.8951549460273422,-37.62066905638722,0.0
0.039,-0.004542293686213697,0.12100119037014011,-0.0885179920920535,2.5666375200880718,1.8785702949250362,-37.0915850522309,0.0
0.04,-0.004629875136788624,0.12354936939951418,-0.08664764108250537,2.5298073958096716,1.8621605815200748,-36.56988399964057,0.0
0.041,-0.004715594411081228,0.12606097789418338,-0.08479361362779028,2.4934953249829706,1.845922710900121,-36.05546223048355,0.0
0.042,-0.00479946774876963,0.12853653033410345,-0.08295573939143372,2.457694078857467,1.8298536362932256,-35.54821752305725,0.0
0.043,-0.004881511219604187,0.13097653398599932,-0.08113385107480581,2.4223965306825113,1.8139503590846688,-35.048049103204484,0.0
0.044,-0.00496174072709709,0.13338148902621919,-0.07932778436006853,2.3875956539647576,1.7982099280457313,-34.554857619635385,0.0
0.045,-0.005040172011767106,0.1357518886494628,-0.07753737785918241,2.353284520925468,1.782629438648701,-34.068545122077374,0.0
0.046,-0.00511682065398661,0.1380882191648909,-0.07576247306832866,2.319456301136363,1.7672060324589007,-33.58901504195168,0.0
0.047,-0.005191702076772753,0.1403909600905407,-0.07400291432307968,2.2861042601794552,1.7519368965369209,-33.1161721733892,0.0
0.048,-0.005264831548767878,0.1426605842538957,-0.07225854875097704,2.2532217582198606,1.7368192628030514,-32.64992265301455,0.0
0.049,-0.005336224189135115,0.14489755795387133,-0.07052922619799128,2.220802247709892,1.7218504070258638,-32.190173927435964,0.0
0.05,-0.005405894967424814,0.1471023409618691,-0.06881479922351916,2.1888392733695965,1.7070276487950822,-31.73683475295113,0.0
0.051,-0.005473858706607991,0.14927538662432877,-0.06711512305219944,2.1573264707316047,1.6923483508734167,-31.289815174935065,0.0
0.052,-0.00554013008607304,0.1514171419641988,-0.06543005552621638,2.126257564701307,1.6778099185548538,-30.84902650744473,0.0
0.053,-0.005604723644171178,0.15352804776805296,-0.06375945706374132,2.0956263683201017,1.6634097991105974,-30.41438131569736,0.0
0.054,-0.0056676537807112595,0.15560853867168029,-0.06210319061805113,2.065426781550256,1.649145481244184,-29.9857933988544,0.0
0.055,-0.005728934759454034,0.15765904324574723,-0.060461121636644584,2.035652790058785,1.6350144945460166,-29.563177772791537,0.0
0.056,-0.0057885807117902775,0.15967998411933038,-0.058833118004291605,2.0062984634656873,1.6210144087164229,-29.146450645288347,0.0
0.057,-0.005846605639777043,0.16167177808304298,-0.05721904999478794,1.9773579538808583,1.6071428329132498,-28.73552939530307,0.0
0.058,-0.005903023415114864,0.16363483606261248,-0.05561879027783335,1.9488254962734683,1.5933974158909283,-28.330332578179362,0.0
0.059,-0.005957847781981678,0.1655695632157482,-0.054032213873494106,1.9206954070974502,1.5797758453859456,-27.93077990617413,0.0
0.06,-0.006011092176612059,0.16747635584800924,-0.05245920017080768,1.892962141054155,-26.501065312073116,690.230025484893,12.0
0.061,-0.006076731725328399,0.16971279018612617,-0.07874988263329455,2.5782695126931445,-26.080976575520978,680.4078539057328,12.0
0.062,-0.006168452586984004,0.1726296438657021,-0.10462249870876913,3.253823796492172,-25.664924028066373,670.7235261232305,12.0
0.063,-0.0062858387047850595,0.17621723239725126,-0.1300810591961039,3.9197618697217544,-25.25285702907093,661.1751136073658,12.0
0.064,-0.006428478007590766,0.180466007210123,-0.1551295246729103,4.576218694690953,-24.84472577570707,651.760714938266,12.0
0.065,-0.006595962360086299,0.18536655375007244,-0.17977180632755815,5.223327345679919,-24.440481290604392,642.4784554243513,12.0
0.066,-0.006787888300065646,0.19090961035826726,-0.20401175255196258,5.861218709189725,4.027265629660972,-84.44032718866634,0.0
0.067,-0.00698989257947921,0.19672880746300156,-0.20000294866076632,5.777373359948659,3.9904108773484332,-83.25315514493674,0.0
0.068,-0.007187906414035785,0.20246475003329628,-0.19603079458399683,5.694706871828212,3.9539647987397797,-82.08256517443169,0.0
0.069,-0.0073819662503517005,0.20811860867701862,-0.19209488516996684,5.613202779802138,3.9179203930908932,-80.92832438427877,0.0
0.07,-0.007572108133370792,0.2136915376528905,-0.18819482220165196,5.5328448497868,3.882270767538228,-79.79020315790589,0.0
0.071,-0.00775836771328036,0.21918467510087727,-0.1843302143009656,5.453617075678978,3.8470091358340386,-78.66797511313709,0.0
0.072,-0.00794078025773673,0.22459914345102316,-0.18050067673726014,5.375503673555344,3.8121288157707176,-77.5614170200361,0.0
0.073,-0.008119380654067244,0.2299360494970796,-0.17670583139284132,5.298489080627833,3.7776232287145213,-76.47030878610857,0.0
0.074,-0.008294203404328782,0.23519648423010378,-0.17294530684118306,5.222557957604807,3.743485900652793,-75.39443348974314,0.0
0.075,-0.008465282637566138,0.24038152324809606,-0.16921873815512273,5.147695182879218,3.7097104596145294,-74.33357729789647,0.0
0.076,-0.008632652117041024,0.24549222699712273,-0.16552576679406591,5.073885849107735,3.6762906341522994,-73.28752941764255,0.0
0.077,-0.008796345258880154,0.25052964139848605,-0.16186604030946242,5.001115254311744,3.6432202493843344,-72.25608197012471,0.0
0.078,-0.008956394587315343,0.2554947874602388,-0.15823922064054796,4.929369140102029,-24.456847851025852,646.5277851710547,12.0
0.079,-0.009126795224932798,0.2607458804300248,-0.18249520816088458,5.571282170937606,-24.055768129133842,637.3199717944063,12.0
0.08,-0.009321251949122693,0.2666343041413612,-0.20635203085507303,6.204052170065984,-23.658510297693446,628.2414182432168,12.0
0.081,-0.009539367488879118,0.2731509795311014,-0.22981348720330874,6.8278074962849455,-23.265027352986372,619.2903164936764,12.0
0.082,-0.009780748353067836,0.28028695517781493,-0.25288332899463783,7.442674710519014,-22.875273075001434,610.4648839716266,12.0
0.083,-0.010045004798316475,0.2880334060697708,-0.2755652618645005,8.048778593259692,-22.489202019461324,601.763363305315,12.0
0.084,-0.010331751430104473,0.29638164902811315,-0.29786293445762135,8.646241910738174,5.960571563596101,-124.58279289994299,0.0
0.085,-0.010626643209341213,0.30496589253669687,-0.29192972921484445,8.522537071993488,5.905940126767821,-122.83099141936141,0.0
0.086,-0.010915628998417231,0.3134273030193869,-0.28605085352884285,8.400571772002301,5.851910714210286,-121.10365758619307,0.0
0.087,-0.011198762827284058,0.32176760782800623,-0.28022571054829887,8.280321715488883,5.79847301673629,-119.40044777191913,0.0
0.088,-0.011476098134628744,0.32998851020537595,-0.27445371364400484,8.16176294816337,5.7456168845971956,-117.72102318561902,0.0
0.089,-0.011747687777491156,0.33809168960642294,-0.2687342862586525,8.044871852166095,5.693332325453312,-116.06504980943936,0.0
0.09,-0.012013584041257528,0.3460788020321643,-0.2630668617505307,7.929625141329204,5.641609502263058,-114.4321983314747,0.0
0.091,-0.01227383864951855,0.3539514803598479,-0.2574508832388719,7.815999856492618,5.590438731195074,-112.82214407941696,0.0
0.092,-0.012528502773832098,0.36171133467016703,-0.2518858034505158,7.703973360861469,5.539810479558582,-111.23456695479214,0.0
0.093,-0.012777627043245723,0.3693599525669682,-0.24637108456997228,7.593523335469933,5.489715363780113,-109.66915136870296,0.0
0.094,-0.013021261553639848,0.3768988994916125,-0.24090619809185196,7.484627774720779,5.440144147412688,-108.12558617864288,0.0
0.095,-0.013259455876972318,0.38432971903436625,-0.23549062467462348,7.377264981966989,5.391087739163284,-106.6035646259055,0.0
0.096,-0.013492258808542788,0.39165392809146027,-0.23012385737232452,7.271413663983849,-22.724803950089033,612.6640328632028,12.0
0.097,-0.013733680678204766,0.3992302134854469,-0.25265564612015323,7.879701990227004,-22.339388123838663,603.9331979269091,12.0
0.098,-0.013997442241427337,0.4074104422948836,-0.27480385531359264,8.4793209278623,-21.957637403346013,595.3249678791029,12.0
0.099,-0.014283161743781253,0.4161860061460528,-0.29657212786789766,9.070392222493338,-21.579507531038242,586.837628171918,12.0
0.1,-0.014590461051774887,0.42554841755864825,-0.3179640628107934,9.653035917237302,-21.204954988497423,578.4694883539266,12.0
0.101,-0.014918965609328965,0.4354893082549116,-0.3389832160162467,10.227370376656914,-20.833936985451885,570.2188817307949,12.0
0.102,-0.01526830561240321,0.4460004609275926,-0.3596330775907086,10.793511789560583,7.600929502386886,-155.68264612745583,0.0
0.103,-0.015624149822454969,0.45671649771939754,-0.3520669081314408,10.638926826411815,7.531534650863087,-153.49242098883008,0.0
0.104,-0.015972462436258043,0.4672790395528248,-0.34456976072933604,10.486516757514517,7.462882925882725,-151.3327774649538,0.0
0.105,-0.01631331210644197,0.47769024610180866,-0.3371408988217321,10.33625122039219,7.394961541714668,-149.20328621172948,0.0
0.106,-0.016646766754432604,0.48795224685919686,-0.3297795983942063,10.188100275427322,7.327757910328678,-147.10352388417914,0.0
0.107,-0.01697289358561225,0.49806714164610677,-0.3224851478947655,10.042034402546486,7.261259640539424,-145.0330730901101,0.0
0.108,-0.017291759099673402,0.5080370009611201,-0.3152568480698885,9.898024496265633,7.195454535783875,-142.99152231991602,0.0
0.109,-0.01760342910242291,0.5178638663789046,-0.3080940117772623,9.75604186003389,7.130330591586392,-140.97846586644158,0.0
0.11,-0.017907968718905893,0.5275497509930955,-0.30099596377780086,9.61605819994949,7.06587599274611,-138.99350373595556,0.0
0.111,-0.01820544240459145,0.5370966397953736,-0.2939620405573169,9.478045619380678,7.002079110924097,-137.03624157193948,0.0
0.112,-0.01849591395730132,0.5465064900798897,-0.2869915901362583,9.341976613226928,6.938928502070724,-135.10629057378162,0.0
0.113,-0.018779446528628667,0.5557812318309663,-0.2800839718871997,9.207824062417368,6.876412903958299,-133.2032674188307,0.0
0.114,-0.019056101660476537,0.5649227493215863,-0.27323856527345836,9.075561497817835,-21.25281985789886,586.4400205629244,12.0
0.115,-0.019339904450515328,0.5742901323882705,-0.29430498771838426,9.657811361638538,-20.880629349966714,578.079645947696,12.0
0.116,-0.01964458816585713,0.584235604887964,-0.3150010032997102,10.231759823326,-20.511990171268053,569.8367138495047,12.0
0.117,-0.019969784158187377,0.594750923531074,-0.3353301378761937,10.797523392894655,-20.14686017137236,561.7095836573561,12.0
0.118,-0.020315127275618374,0.6058279603259813,-0.3552958801259519,11.355217071102771,-19.785197832290308,553.6966360989553,12.0
0.119,-0.020680255859320963,0.6174587024568957,-0.37490167713414485,11.904954236959457,-19.42696233702359,545.7962748526061,12.0
0.12,-0.021064811693382632,0.6296352503304194,-0.3941509352375335,12.446846675369429,-19.072113556810145,538.0069261551826,12.0
0.121,-0.0214684399564349,0.6423498156825754,-0.41304702084160383,12.981004603920823,-18.72061203875226,530.3270384222428,12.0
0.122,-0.021890789140419583,0.6555947183122783,-0.4315932618170716,13.507536719096777,-18.37241898431013,522.7550815925208,12.0
0.123,-0.022331511042593608,0.6693623858701638,-0.4497929476067423,14.026550199279527,-18.02749624810625,515.289547085517,12.0
0.124,-0.022790260717978742,0.6836453519972645,-0.46764933002889014,14.538150731090273,-17.68580632575931,507.9289474279617,12.0
0.125,-0.023266696428973308,0.6984362543422358,-0.48516562413145425,15.042442537446048,-17.347312340904615,500.67181585590896,12.0
0.126,-0.02376048056589104,0.7137278613699058,-0.5023449879074687,15.539527931490113,11.055362929645712,-224.25010589216248,0.0
0.127,-0.02425731479360188,0.7291557921250076,-0.49134034394098186,15.316859603383511,10.954104024707817,-221.09394614429866,0.0
0.128,-0.024743194828982434,0.7443626252767599,-0.4804364248943432,15.097325351462226,10.853909999596093,-217.9818492727059,0.0
0.129,-0.02521822086927617,0.7593514730310519,-0.4696321750415624,14.880881422053632,10.754762540440986,-214.91319668446945,0.0
0.13,-0.025682492060849528,0.7741254040035397,-0.4589265568938882,14.667484677759044,10.656643622536535,-211.8873785308161,0.0
0.131,-0.026136106522087935,0.7886874439939346,-0.44831855083641536,14.457092586467489,10.559535505393898,-208.90379355144174,0.0
0.132,-0.02657916103845842,0.8030405702978995,-0.4378071596934914,14.249663351352421,-17.603920392647534,511.80496761930215,12.0
0.133,-0.027025713635595784,0.8175449135105004,-0.4552416467142184,14.75780479202386,-17.265589978612017,504.495184513128,12.0
0.134,-0.027489532088393945,0.832553760449986,-0.47233940418674364,15.258687968227314,-16.930454392186583,497.2881760824479,12.0
0.135,-0.027970281252955937,0.8480599037755746,-0.4891036085221404,15.752414927459899,-16.5984775365403,490.1825061885496,12.0
0.136,-0.028467629152501308,0.8640562378191358,-0.5055374006047794,16.239086296906567,-16.269623920029147,483.17675878389826,12.0
0.137,-0.028981246941630366,0.8805357571642513,-0.5216438859884002,16.718801293017037,-15.94385865324063,476.26953777778925,12.0
0.138,-0.029510809946309398,0.8974915873897252,-0.5374261128942043,17.191657270664766,12.446193529893403,-248.3073451091356,0.0
0.139,-0.03004203197675751,0.914559675825812,-0.5250369087038945,16.945102274081822,12.332415507360702,-244.81095280421493,0.0
0.14,-0.030560921494747505,0.9313829492528573,-0.5127608950871798,16.70201915552089,12.21980454369633,-241.3633600310256,0.0
0.141,-0.031067591115905405,0.9479648554227729,-0.5005969172381775,16.462359513755366,12.108340535795234,-237.96388264524384,0.0
0.142,-0.03156215230423175,0.964308793813067,-0.4885438381619838,16.226075572617212,11.998003666440177,-234.6118453639324,0.0
0.143,-0.0320447153920807,0.9804181163067522,-0.4766005405955672,15.993120228643527,11.888774434696112,-231.30658244962254,0.0
0.144,-0.0325153896101253,0.9962961282194657,-0.46476592652416265,15.763447036501361,11.780633649324002,-228.0474375037634,0.0
0.145,-0.03297428310345821,1.0119460888418736,-0.45303891692704457,15.53701020129194,11.673562425299957,-224.83376335765885,0.0
0.146,-0.03342150295108263,1.0273712121063459,-0.44141845146378544,15.313764569090498,11.567542179529948,-221.66492193839346,0.0
0.147,-0.03385715516991032,1.0425746667488704,-0.42990348839483306,15.093665624645444,11.462554629711653,-218.54028423612777,0.0
0.148,-0.03428134474872233,1.0575595774491702,-0.4184930040477228,14.87666947520276,11.358581787103319,-215.45923007494605,0.0
0.149,-0.034694175665645796,1.0723290254328381,-0.40718599253314486,14.662732841961029,11.255605952648578,-212.42114799174803,0.0
0.15,-0.0350957504458649,1.0868860403033307,-0.39598147350078694,14.451813273196654,-16.913731368171923,508.3413802768416,12.0
0.151,-0.03550013322985258,1.101590810146463,-0.4127287036973008,14.956517343873696,-16.581296599574102,501.0846518556625,12.0
0.152,-0.03592109757689118,1.1167966731087702,-0.42914512141658956,15.45401621659618,-16.25207060930155,493.92998401401434,12.0
0.153,-0.036358314255804394,1.1324964743169212,-0.44523390261032747,15.944410861005649,-15.926017464434088,486.87595556474866,12.0
0.154,-0.03681145721600058,1.1486831598434892,-0.460998202201278,16.427801208468182,-15.603101604817578,479.9211599381157,12.0
