Time[sec],x1[k],x2[k],x3[k],x4[k],d/dt x3[k],d/dt x4[k],voltage
0.0,0.0,0.0,0.0,0.0,-28.067341181049954,717.7668185329665,12.0
0.001,-1.3961208525269318e-05,0.0003571746085478457,-0.02785025855246564,0.7126494745066222,-27.63387175677434,707.55614595235,12.0
0.002,-5.5556677980130365e-05,0.0014219183130473846,-0.0552691283536485,1.4151600574211043,-27.20455562351528,697.4887273095935,12.0
0.003,-0.00012435704512875944,0.003184162529312611,-0.08226073661931751,2.107674012022778,-26.779339969985248,687.5625580106137,12.0
0.004,-0.0002199370896991231,0.005633980912430063,-0.10882915779522656,2.7903315973675356,-26.358172863172317,677.7756618365709,12.0
0.005,-0.0003418756401680536,0.008761586397795151,-0.13497841482326034,3.463271110149482,-25.941003230414196,668.1260903516214,12.0
0.006,-0.0004897555227520343,0.012557329255144228,-0.16071247999433858,4.126628912251528,-25.5277808467987,658.6119225123375,12.0
0.007,-0.0006631635110014773,0.01701169516071149,-0.18603527579286377,4.780539458039005,-25.11845632268866,649.2312642807773,12.0
0.008,-0.0008616902763351307,0.022115303300327512,-0.2109506757270936,5.425135321214565,-24.7129810914529,639.9822482437794,12.0
0.009,-0.0010849303406414578,0.02785890454013841,-0.23546250512871442,6.0605472207146,-24.31130739762893,630.863033245839,12.0
0.01,-0.0013324820307152859,0.03423337965650092,-0.2595745419253449,6.686904045766708,-23.91338828546148,621.8718040338713,12.0
0.011,-0.001603947424464315,0.04122973729926376,-0.2832905175348281,7.304332884726786,-23.519177585795813,613.0067708484729,12.0
0.012,-0.0018989323049227284,0.048839112207893574,-0.3066141176440231,7.9129590503316924,-23.128629904544827,604.2661690659351,12.0
0.013,-0.0022170461136492648,0.05705276340761573,-0.32954898299672425,8.512906105235242,-22.74170061103694,595.6482588362504,12.0
0.014,-0.002557901906623683,0.06586207248646929,-0.3520987101446509,9.104295886397155,-22.35834582686904,587.1513247373612,12.0
0.015,-0.0029211163352487928,0.07525854268600238,-0.3742668518271981,9.687248517938025,-21.978522419806232,578.7736755926949,12.0
0.016,-0.0033063095861267707,0.08523379665678746,-0.3960569179601863,10.261882442921305,-21.602187989407074,570.5136440207569,12.0
0.017,-0.0037096064784728966,0.09569008075567216,-0.40349305214029346,10.470713130280428,6.620782999750566,-150.27385948225643,0.0
0.018,-0.004109799488669649,0.10608600970980808,-0.3969032857137456,10.321496289787998,6.558877719651076,-148.16477193930345,0.0
0.019,-0.004503433557705627,0.11633377143275542,-0.39037504311744536,10.174373755261023,6.497733196410962,-146.08517800944327,0.0
0.02,-0.004890569831226189,0.12643544555486974,-0.3839075699942124,10.029316240828296,6.4373366609262686,-144.03466313570473,0.0
0.021,-0.005271268706807991,0.13639308262485583,-0.3775001246614088,9.886294872279219,6.377675534726292,-142.01281859953264,0.0
0.022,-0.005645589846604272,0.14620870452065168,-0.37115197792060484,9.745281181236338,6.318737427395753,-140.01924143826014,0.0
0.023,-0.006013592189682695,0.15588430485079374,-0.3648624128714988,9.606247099462722,6.260510134055844,-138.05353436448954,0.0
0.024,-0.00637533396307728,0.16542184931650294,-0.3586307247432332,9.469164953725638,6.202981633083369,-136.11530569334363,0.0
0.025,-0.006730872695319683,0.17482327614946952,-0.35245622069219046,9.33400745958816,6.14614008337396,-134.20416925455297,0.0
0.026,-0.007080265228713987,0.18409049651127044,-0.34633821961677425,9.200747715744122,6.089973821837756,-132.31974431222966,0.0
0.027,-0.007423567730944946,0.19322539487242468,-0.34027605198120525,9.069359198641484,6.0344713610188885,-130.4616554887222,0.0
0.028,-0.007760835706834347,0.20222982939595652,-0.33426905963731857,8.939815757041808,5.979621386688606,-128.62953268756706,0.0
0.029,-0.008092124009906606,0.21110563231512056,-0.32831659564894405,8.81209160666245,5.925412755474474,-126.82301101761173,0.0
0.03,-0.008417486853206691,0.21985461028836167,-0.3224180241263686,8.686161325141137,5.8718344926275945,-125.04173072169806,0.0
0.031,-0.008736977812546943,0.2284785445241045,-0.31657272016277116,8.561999850260326,5.818875791177451,-123.28533715145632,0.0
0.032,-0.009050649846128508,0.23697919140322543,-0.31078006955015747,8.439582471123165,5.7665260080889675,-121.55348064240067,0.0
0.033,-0.009358555304923613,0.24535828282065253,-0.30503946861973036,8.31888482330727,5.714774662112615,-119.84581644529162,0.0
0.034,-0.009660745941178505,0.25361752646980174,-0.2993503241075828,8.19988288482809,5.66361143197967,-118.1620046689504,0.0
0.035,-0.009957272918499703,0.2617586061751003,-0.2937120529990815,8.082552971421238,5.613026154308471,-116.5017102134413,0.0
0.036,-0.010248186821729448,0.2697831822180632,-0.28812408237610426,7.966871731916114,5.563008821550198,-114.86460270454566,0.0
0.037,-0.010533537667309661,0.27769289167895533,-0.2825858492574653,7.852816143388885,5.513549579839688,-113.250356425114,0.0
0.038,-0.01081337491975282,0.28548934897105727,-0.2770968003548935,7.7403635035885685,5.464638725670948,-111.65865020783117,0.0
0.039,-0.011087747492495754,0.2931741458830844,-0.27165639204475184,7.6294914303268255,5.416266705574509,-110.08916742652181,0.0
0.04,-0.01135670375813867,0.3007488519174972,-0.26626409021000885,7.520177856678478,5.368424113989059,-108.54159592817548,0.0
0.041,-0.011620291558872906,0.3082150146349538,-0.26091937007954075,7.412401026095082,5.321101691095661,-107.0156279637416,0.0
0.042,-0.011878558215389459,0.3155741599510897,-0.25562171608836715,7.306139488193488,5.274290320942981,-105.51096012847559,0.0
0.043,-0.012131550535594445,0.32282779242741116,-0.25037062174049357,7.201372094627778,5.227981029608472,-104.02729330346517,0.0
0.044,-0.012379314824947125,0.3299773956129658,-0.2451655894494745,7.0980779942422565,5.18216498305087,-102.56433258698425,0.0
0.045,-0.012621896908003643,0.3370244327358841,-0.2400061302253381,6.9962366232707645,5.136833482835003,-101.12178715575708,0.0
0.046,-0.012859342119307626,0.343970346438367,-0.23489176378164142,6.8958277090795885,5.091977967674224,-99.6993703178515,0.0
0.047,-0.013091695315074162,0.35081655916077664,-0.22982201835746716,6.796831264719915,5.047590011025264,-98.2967994355363,0.0
0.048,-0.013319000883565189,0.35756447348502407,-0.22479643055731843,6.699227584056616,5.00366131893069,-96.9137958562928,0.0
0.049,-0.013541302753221553,0.364215472408079,-0.21981454522172472,6.602997237886426,4.9601837282864105,-95.55008485782578,0.0
0.05,-0.013758644400636157,0.3707709196106583,-0.21487591529998643,6.508121070124423,4.917149205138556,-94.20539559404068,0.0
0.051,-0.013971068859390258,0.37723215975353175,-0.20998010171098527,6.414580193599657,4.874549842811447,-92.87946103548967,0.0
0.052,-0.014178618733187999,0.3836005189104752,-0.20512667314475672,6.322355983916826,4.832377859200292,-91.57201788244943,0.0
0.053,-0.014381336195560427,0.389877304575163,-0.20031520604895697,6.231430079348175,4.790625596667704,-90.28280656333473,0.0
0.054,-0.014579262999351238,0.3960638059787524,-0.19554528448058298,6.1417843763281175,4.74928552004122,-89.01157117088428,0.0
0.055,-0.014772440484847929,0.4021612943646954,-0.19081649997629635,6.0534010255532715,4.708350214872051,-87.75805940691387,0.0
0.056,-0.014960909587051072,0.4081710232364163,-0.18612845143456694,5.9662624284665915,4.667812385859518,-86.52202253250482,0.0
0.057,-0.015144710842799445,0.41409422860063616,-0.181480744999752,5.88035123380315,4.627664855301891,-85.30321531906462,0.0
0.058,-0.015323884398917265,0.41993212924346435,-0.17687299393212094,5.795650333672327,4.587900561346741,-84.10139599282684,0.0
0.059,-0.01549847002367379,0.425685927112154,-0.1723048184324233,5.712142858144876,4.548512555595182,-82.91632615819256,0.0
0.06,-0.015668507106283775,0.43135680731644377,-0.16777584563038936,5.629812175223012,4.509494003031261,-81.74777079724942,0.0
0.061,-0.015834034665793136,0.436945938428857,-0.16328570944450876,5.548641886580243,4.470838180123685,-80.59549820942578,0.0
0.062,-0.015995091358194546,0.44245447272889504,-0.15883405046603818,5.468615824095153,4.432538473270256,-79.45927996238058,0.0
0.063,-0.01615171548291355,0.4478835464274302,-0.15442051585159947,5.389718046665445,4.394588377363098,-78.33889084685852,0.0
0.064,-0.016303944989163852,0.4532342798871686,-0.15004475921753088,5.311932837077649,4.3569814943776635,-77.2341088323332,0.0
0.065,-0.01645181748329694,0.45850777787485175,-0.14570644052069412,5.235244698427842,4.319711531767911,-76.14471501629622,0.0
0.066,-0.01659537023915579,0.46370512990890467,-0.14140522589841173,5.159638349192028,4.282772300279045,-75.07049355443796,0.0
0.067,-0.016734640196645886,0.468827410233791,-0.13714078766857823,5.085098723578084,4.2461577140371025,-74.01123166556569,0.0
0.068,-0.016869663970832397,0.47387567812826475,-0.13291280418663037,5.01161096715366,4.209861788601561,-72.96671956967312,0.0
0.069,-0.017000477857801868,0.47885097811127497,-0.12872095974648284,4.939160433922214,4.173878639641996,-71.93675044650163,0.0
0.07,-0.01712711784044201,0.4837543401454917,-0.12456494448255115,4.867732683432749,4.138202481629027,-70.92112039457831,0.0
0.071,-0.01724961959409677,0.4885867798370965,-0.12044445427344545,4.797313477942479,4.102827626547774,-69.91962839100252,0.0
0.072,-0.017368018493687267,0.4933492986819695,-0.11635919062593382,4.727888778923234,4.067748482328906,-68.93207624194643,0.0
0.073,-0.0174823496221988,0.4980428843551287,-0.1123088605405176,4.659444742956059,4.032959551016379,-67.95826852449889,0.0
0.074,-0.017592647769411964,0.502668510692876,-0.10829317650825766,4.591967721972998,3.9984554288042045,-66.9980125900191,0.0
0.075,-0.01769894743984668,0.5072271379655139,-0.1043118563836385,4.525444259388409,3.964230804305489,-66.05111850932937,0.0
0.076,-0.017801282858236327,0.5117197130724132,-0.10036462329065367,4.459861087328817,3.9302804572935788,-65.11739903345112,0.0
0.077,-0.017899687974666078,0.5161471697266937,-0.09645120553340014,4.395205124009788,3.8965992575061628,-64.19666955642093,0.0
0.078,-0.01799419646961545,0.5205104286370821,-0.09257133650795231,4.331463471152792,3.8631821634663153,-63.2887480786723,0.0
0.079,-0.01808484175890738,0.524810397687022,-0.08872475461548358,4.268623411441027,3.830024221320007,-62.39345517096824,0.0
0.08,-0.018171656998566186,0.5290479721111098,-0.08491120317660415,4.206672406013137,3.797120563689644,-61.510613938869874,0.0
0.081,-0.018254675092993566,0.533224034775751,-0.08113043030150706,4.145598090482903,3.764466407895097,-60.640049966349544,0.0
0.082,-0.018333928699007178,0.5373394563302722,-0.07738218881522237,4.085388272791295,3.7320570549604453,-59.781591285328815,0.0
0.083,-0.018409450226141693,0.541395095241028,-0.07366623623265389,4.0260309327136,3.699887889330393,-58.935068368632834,0.0
0.084,-0.018481271843920233,0.5453917980442499,-0.06998233464077518,3.9675142182726417,3.6679543772593304,-58.100314079170566,0.0
0.085,-0.01854942548648669,0.5493303995163312,-0.06633025061597665,3.9098264433198975,3.6362520657010915,-57.2771636356387,0.0
0.086,-0.0186139428571776,0.5532117228424056,-0.06270975514221669,3.8529560851408493,3.6047765812088253,-56.465454578568036,0.0
0.087,-0.018674855433037645,0.5570365797833435,-0.05912062352992232,3.7968917820827603,3.5735236288442156,-55.66502673668696,0.0
0.088,-0.018732194469281805,0.5608057708412661,-0.05556263533559828,3.741622331203523,3.5424889910954556,-54.8757221935828,0.0
0.089,-0.018785991003402832,0.5645200854139415,-0.05203557428629253,3.6871366860778787,3.511668526862949,-54.09738525658994,0.0
0.09,-0.018836275852605913,0.5681803017361309,-0.0485392282958682,3.633423957618393,3.481058171749008,-53.32986246834281,0.0
0.091,-0.01888307962529342,0.5717871872702056,-0.045073389287896434,3.580473408539273,3.4506539355967227,-52.573002528361144,0.0
0.092,-0.018926432725904996,0.5753414988846111,-0.0416378531099699,3.528274450822248,3.420451901327333,-51.82665625712037,0.0
0.093,-0.018966365356839952,0.5788439829392917,-0.038232419488148,3.476816644499013,3.3904482243468594,-51.09067657875405,0.0
0.094,-0.01900290752237826,0.5822953754352097,-0.03485689195387635,3.426089695526844,3.360639131560034,-50.36491849092222,0.0
0.095,-0.01903608903254406,0.5856964021622355,-0.03151107777167764,3.376083453687279,3.331020920393848,-49.649239035005905,0.0
0.096,-0.019065939506913678,0.5890477788454792,-0.028194787867586824,3.3267879105069778,3.3015899578303403,-48.9434972666151,0.0
0.097,-0.019092488378370208,0.5923502112901226,-0.024907836758303346,3.278193197199844,3.2723426794482284,-48.247554226397305,0.0
0.098,-0.01911576489581497,0.5956043954931154,-0.021650042494677793,3.230289583078085,3.2432755886670783,-47.56127291748226,0.0
0.099,-0.01913579812320984,0.5988110176377891,-0.018421226655664993,3.183067475620073,3.214385256707968,-46.8845183063736,0.0
0.1,-0.01915261695044939,0.6019707544668408,-0.015221214179497117,3.136517415184355,3.185668320237344,-46.21715724807148,0.0
0.101,-0.01916625009468137,0.6050842733501852,-0.012049833326261026,3.0906300740413313,3.1571214808786516,-45.55905847229935,0.0
0.102,-0.01917672610302137,0.6081522323975795,-0.00890691562127916,3.045396254771489,3.1287415044495397,-44.91009256076569,0.0
0.103,-0.01918407335581755,0.6111752805890345,-0.005792295790908727,3.000806888412011,3.100525220089845,-44.27013192086438,0.0
0.104,-0.019188320069857406,0.6141540579035769,-0.0027058116991252592,2.9568530326268103,3.072469519399367,-43.639050759706215,0.0
0.105,-0.019189494301517944,0.6170891954464021,0.0003526957151263337,2.9135258698994093,3.0445713555851692,-43.016725058473405,0.0
0.106,-0.01918762394986046,0.619981315574457,0.0033833824998305783,2.870816705748097,3.0168277426181827,-42.40303254708902,0.0
0.107,-0.019182736758785828,0.6228310319916848,0.00638640173868241,2.828716967370451,2.989235754576378,-41.79785268496366,0.0
0.108,-0.019174860319277457,0.6256389498473469,0.009361903601115967,2.7872182022443592,2.961792524968592,-41.201066641125955,0.0
0.109,-0.019164022074731748,0.6284056659350333,0.012310035435535889,2.746312075304486,2.9344952454375925,-40.61255725418816,0.0
0.11,-0.01915024932265936,0.6311317687738094,0.015230941811809678,2.705990367786468,2.907341165189002,-40.032209015917985,0.0
0.111,-0.019133569217412008,0.6338178387229552,0.01812476457812183,2.6662449755958986,2.880327590212893,-39.45990804808345,0.0
0.112,-0.019114008772892082,0.6364644480963645,0.020991642917604372,2.627067907682204,2.853451882507115,-38.89554207936662,0.0
0.113,-0.01909159486520894,0.6390721612754272,0.0238317134042382,2.588451284434038,2.8267114593096148,-38.33900042258147,0.0
0.114,-0.01906635423528296,0.6416415348204286,0.02664511005803844,2.5503873360957674,2.8001037923395486,-37.79017395219001,0.0
0.115,-0.019038313491392587,0.644173117580302,0.029431964399453774,2.512868401207307,2.773626407048206,-37.248955082148456,0.0
0.116,-0.01900749911081588,0.6466674507724194,0.032192405490734606,2.4758869254680755,2.7472768820559668,-36.715237749758224,0.0
0.117,-0.018973937442835192,0.6491250681081205,0.03492655999700458,2.43943545995371,2.72105284830419,-36.18891739035203,0.0
0.118,-0.018937654711666523,0.6515464959159827,0.03763455224627871,2.4035066593648637,2.6949519882207493,-35.66989091243382,0.0
0.119,-0.018898677018353644,0.6539322532307827,0.04031650427457151,2.368093280761571,2.66897203509866,-35.15805667969338,0.0
0.12,-0.018857030343039753,0.6562828518953049,0.04297253587648303,2.3331881821159106,2.643110772394361,-34.65331449044801,0.0
0.121,-0.018812740547190402,0.658598796660762,0.04560276465510908,2.298784320884365,2.6173660330342146,-34.155565557362394,0.0
0.122,-0.01876583337576857,0.6608805852858571,0.048207306071286246,2.264874752599505,2.591735698729094,-33.66471248744182,0.0
0.123,-0.01871633445936271,0.6631287086345108,0.0507862734921834,2.2314526294806156,2.5662176992968595,-33.180659262293105,0.0
0.124,-0.018664269316235736,0.6653436507711458,0.05333977823877584,2.198511199078971,2.5408100119997274,-32.703311218875854,0.0
0.125,-0.018609663354000727,0.6675258890433794,0.0558679296279662,2.1660438031012093,2.5155106609601097,-32.23257503277548,0.0
0.126,-0.018552541872063705,0.6696758941914422,0.058370835025764636,2.1340438758549864,2.4903177164085335,-31.768358696126334,0.0
0.127,-0.018492930063511177,0.6717941304387237,0.06084859989249385,2.1025049429615312,2.465229294049422,-31.310571499314328,0.0
0.128,-0.018430853016925798,0.6738810555801054,0.063301327826974,2.071420620099559,2.440243554440327,-30.8591240131233,0.0
0.129,-0.01836633571823606,0.6759371210717354,0.06572912061121164,2.0407846117289328,2.415358702361729,-30.41392807059404,0.0
0.13,-0.018299403052523838,0.6779627721196085,0.06813207825449373,2.0105907098312943,2.390572986193929,-29.97489674912327,0.0
0.131,-0.01823007980579057,0.6799584477669768,0.07051029903689682,1.9808327926673144,2.3658846973008676,-29.541944352797557,0.0
0.132,-0.018158390666682907,0.6819245809806169,0.07286387955222193,1.9515048235502193,2.341292169420738,-29.114986394957278,0.0
0.133,-0.018084360227979965,0.6838615987293095,0.07519291474752979,1.9226008497295557,2.316793778104734,-28.693939582321196,0.0
0.134,-0.018008012987728382,0.6857699220507066,0.07749749795764999,1.894115001439291,2.292387940227737,-28.278721801437516,0.0
0.135,-0.01792937335182912,0.687649966167133,0.07977772096041134,1.8660414902538514,2.2680731131941827,-27.869252095335433,0.0
0.136,-0.017848465635227476,0.6895021405547093,0.08203367401193402,1.8383746081044843,2.2438477944340884,-27.465450649526097,0.0
0.137,-0.017765314063375153,0.6913268490218089,0.08426544588580212,1.8111087261636998,2.2197105208407035,-27.067238776135362,0.0
0.138,-0.017679942773701385,0.6931244897880171,0.08647312391236105,1.7842382937226988,2.195659868204741,-26.674538897936884,0.0
0.139,-0.01759237581704679,0.6948954555620328,0.08865679401747709,1.7577578370838305,2.1716944506548983,-26.287274532597692,0.0
0.14,-0.01750263715906064,0.6966401336185367,0.09081654076076803,1.7316619584677726,2.147812920104525,-25.90537027713189,0.0
0.141,-0.01741075068156232,0.6983589058740455,0.09295244737331385,1.705945334935138,2.124013965704336,-25.52875179255836,0.0
0.142,-0.017316740183437245,0.7000521489472321,0.09506459578876218,1.6806027175277993,2.100296313391562,-25.157345791669297,0.0
0.143,-0.017220629381958386,0.7017202342338166,0.09715306668044445,1.6556289302043183,2.0766587253481212,-24.791080023882973,0.0
0.144,-0.017122441914764194,0.7033635280038204,0.09921793950776889,1.6310188684592573,2.0530999993192847,-24.429883255620066,0.0
0.145,-0.017022201340655404,0.7049823914591024,0.10125929254587288,1.6067674985041758,2.0296189681793977,-24.073685258633027,0.0
0.146,-0.016919931140771387,0.706577180803898,0.10327720292063014,1.5828698562648444,2.0062144994163797,-23.72241679573284,0.0
0.147,-0.016815654719735933,0.7081482473145044,0.1052717466432036,1.5593210463906575,1.9828854946213168,-23.376009606688264,0.0
0.148,-0.016709395406771077,0.7096959374080622,0.10724299864412486,1.5361162412769016,1.9596308889834413,-23.034396394306786,0.0
0.149,-0.016601176456779713,0.7112205927104528,0.109191032806908,1.513250680099613,1.9364496507903874,-22.697510810693615,0.0
0.15,-0.016491021051397655,0.7127225501233346,0.11111592200120636,1.4907196678627292,1.9133407809336012,-22.36528744368446,0.0
0.151,-0.016378952300015844,0.7142021418903345,0.11301773811552059,1.468518574457258,1.890303312418787,-22.037661803448238,0.0
0.152,-0.016264993240694733,0.7156596956597606,0.11489655208835842,1.446642833769733,1.8673363098978062,-21.714570309787437,0.0
0.153,-0.016149166839559678,0.7170955344961519,0.11675243391795859,1.4250879435140327,1.844438869518747,-21.39595028968078,0.0
0.154,-0.016031495993595903,0.7185099770068449,0.11858545271988875,1.4038494634373504,1.821610118060094,-21.08173995180423,0.0
0.155,-0.01591200353158994,0.7199033374060683,0.1203956767584909,1.3829230144094047,1.7988492124534594,-20.771878373558096,0.0
