Time[sec],x1[k],x2[k],x3[k],x4[k],d/dt x3[k],d/dt x4[k],voltage
0.0,0.0,0.0,0.0,0.0,-28.067341181049954,717.7668185329665,12.0
0.001,-1.3961208525269318e-05,0.0003571746085478457,-0.02785025855246564,0.7126494745066222,-27.63387175677434,707.55614595235,12.0
0.002,-5.5556677980130365e-05,0.0014219183130473846,-0.0552691283536485,1.4151600574211043,-27.20455562351528,697.4887273095935,12.0
0.003,-0.00012435704512875944,0.003184162529312611,-0.08226073661931751,2.107674012022778,-26.779339969985248,687.5625580106137,12.0
0.004,-0.0002199370896991231,0.005633980912430063,-0.10882915779522656,2.7903315973675356,-26.358172863172317,677.7756618365709,12.0
0.005,-0.0003418756401680536,0.008761586397795151,-0.13497841482326034,3.463271110149482,-25.941003230414196,668.1260903516214,12.0
0.006,-0.0004897555227520343,0.012557329255144228,-0.16071247999433858,4.126628912251528,-25.5277808467987,658.6119225123375,12.0
0.007,-0.0006631635110014773,0.01701169516071149,-0.18603527579286377,4.780539458039005,-25.11845632268866,649.2312642807773,12.0
0.008,-0.0008616902763351307,0.022115303300327512,-0.2109506757270936,5.425135321214565,-24.7129810914529,639.9822482437794,12.0
0.009,-0.0010849303406414578,0.02785890454013841,-0.23546250512871442,6.0605472207146,-24.31130739762893,630.863033245839,12.0
0.01,-0.0013324820307152859,0.03423337965650092,-0.2595745419253449,6.686904045766708,-23.91338828546148,621.8718040338713,12.0
0.011,-0.001603947424464315,0.04122973729926376,-0.2832905175348281,7.304332884726786,-23.519177585795813,613.0067708484729,12.0
0.012,-0.0018989323049227284,0.048839112207893574,-0.3066141176440231,7.9129590503316924,-23.128629904544827,604.2661690659351,12.0
0.013,-0.0022170461136492648,0.05705276340761573,-0.32954898299672425,8.512906105235242,-22.74170061103694,595.6482588362504,12.0
0.014,-0.0025579019084255323,0.06586207254507848,-0.3520987101178926,9.104295885566305,-22.35834582723293,587.151324749124,12.0
0.015,-0.0029211163392545625,0.07525854281807676,-0.3742668517667471,9.687248516065571,-21.97852242063056,578.7736756192085,12.0
0.016,-0.003306309580494507,0.08523379648095307,-0.3960569180398995,10.261882445413368,-21.602187988333135,570.5136439854931,12.0
0.017,-0.0037131052944519,0.09577957337131637,-0.4174723770083497,10.828314467079352,-21.22930084745443,562.3695858156603,12.0
0.018,-0.004141130593110194,0.10688772937610226,-0.43851665538215334,11.386659741032089,-20.85982002514615,554.3398801982688,12.0
0.019,-0.004590015997229126,0.11855023481309078,-0.45919313921360866,11.937031816647018,-20.493705248100987,546.42292901797,12.0
0.02,-0.005059395380647873,0.13075917234222562,-0.4795051748144615,12.47954266227934,-20.13091692916005,538.6171565363904,12.0
0.021,-0.005548905948318178,0.14350673595063998,-0.4994560691842322,13.014302679617291,-19.7714161605276,530.9210091884265,12.0
0.022,-0.006058188198199232,0.1567852294247861,-0.5190490906719996,13.541420725305574,-19.415164703825837,523.3329552756354,12.0
0.023,-0.006586885881436205,0.17058706476851365,-0.5382874696627419,14.061004133334894,-19.062124979813596,515.8514846487819,12.0
0.024,-0.007134645965615442,0.18490476071950024,-0.5571743992187772,14.573158736037236,-18.712260058706516,508.47510841011217,12.0
0.025,-0.007701118576290193,0.1997309405720752,-0.5757130360347138,15.077988894910614,-18.365533646220506,501.20235847649747,12.0
0.026,-0.00828595697750254,0.215058331246047,-0.5939065008288166,15.57559751378568,-18.021910077284613,494.03178739250734,12.0
0.027,-0.008888817542981025,0.23087976205815205,-0.6117578788687091,16.066086056206533,-17.681354307916838,486.9619680838291,12.0
0.028,-0.009509359715321707,0.24718816311013175,-0.629270220670296,16.549554568244464,-17.343831904732887,479.9914935337832,12.0
0.029,-0.0101472459720529,0.26397656389714974,-0.6464465425968877,17.026101698188885,-17.009309035806073,473.1189765040336,12.0
0.03,-0.010802141786314404,0.2812380917504325,-0.6632898275292177,17.495824718583577,-16.67775246052018,466.3430492221132,12.0
0.031,-0.011473715595833022,0.29896597053814344,-0.6798030254234325,17.958819544608065,-16.349129520980817,459.66236312065257,12.0
0.032,-0.012161638775156391,0.31715351946835746,-0.6959890538244081,18.415180751013512,-16.02340813404029,453.07558859705193,12.0
0.033,-0.012865585601298038,0.33579415168897114,-0.7118507984660453,18.865001591931573,-15.700556782089265,446.58141473250555,12.0
0.034,-0.013585233222672336,0.3548813729906931,-0.7273911138264699,19.308374019223947,-15.380544504467597,440.17854903166534,12.0
0.035,-0.014320261624615471,0.37440878040632347,-0.7426128237258006,19.74538870229734,-15.063340888248007,433.865717141573,12.0
0.036,-0.015070353597661058,0.3943700608960297,-0.7575187218869882,20.176135046701674,-14.748916059532753,427.64166258779824,12.0
0.037,-0.01583519471457752,0.41475899030335767,-0.772111572382317,20.600701208899597,-14.437240676373612,421.50514656472853,12.0
0.038,-0.016614473298322798,0.4355694320332002,-0.7863941101955234,21.019174114966273,-14.128285920016824,415.4549476702619,12.0
0.039,-0.01740788039359575,0.4567953358416576,-0.8003690417361358,21.431639477706184,-13.822023486816642,409.4898616628861,12.0
0.04,-0.018215109736643375,0.47843073657424123,-0.8140390453740444,21.83818181449898,-13.518425579837153,403.6087012084445,12.0
0.041,-0.019035857723852023,0.5004697528685024,-0.8274067719876801,22.238884465646926,-13.217464900238527,397.8102956198039,12.0
0.042,-0.019869823392270128,0.5229065862215192,-0.8404748453609301,22.63382960756546,-12.919114640839874,392.0934906694498,12.0
0.043,-0.02071670838997942,0.5457355197496616,-0.8532458627057166,23.023098270321185,-12.623348477840949,386.45714834059487,12.0
0.044,-0.021576216950171843,0.5689509170626795,-0.8657223951364684,23.4067703535533,-12.330140563223997,380.9001466011471,12.0
0.045,-0.022448055863393365,0.5925472210841629,-0.8779069881654381,23.784924643151633,-12.039465516834744,375.4213791669758,12.0
0.046,-0.023331934445836252,0.616518952754545,-0.8898021622449565,24.157638829593072,-11.751298417763323,370.0197552417261,12.0
0.047,-0.02422756452692211,0.6408607103171642,-0.9014104130701764,24.524989518039156,-11.46561479918891,364.69419937312927,12.0
0.048,-0.025134660421070154,0.6655671681293107,-0.9127342120749693,24.887052245143853,-11.182390640399504,359.4436512144278,12.0
0.049,-0.026052938903453428,0.6906330755951042,-0.9237760068769135,25.243901494138964,-10.901602359534376,354.2670653101541,12.0
0.05,-0.02698211918687644,0.7160532561338007,-0.9345382217067084,25.595610709417826,-10.623226806535914,349.1634108890006,12.0
0.051,-0.027921922899136743,0.7418226061643151,-0.9450232578298703,25.9422523108889,-10.347241256196803,344.13167165994247,12.0
0.052,-0.028872074060859725,0.7679360941056327,-0.9552334939608451,26.283897708103712,-10.073623401300878,339.17084561155065,12.0
0.053,-0.0298322990572027,0.7943887591953631,-0.965171286750479,26.620617316953226,-9.802351344685416,334.2799447749876,12.0
0.054,-0.030802326602408035,0.8211757100958803,-0.974838971359355,26.95248057936424,-9.533403590043882,329.45799494458515,12.0
0.055,-0.03178188774649498,0.848292124763931,-0.9842388615128946,27.279555965143395,-9.26675904021952,324.70403565083944,12.0
0.056,-0.03277071584341791,0.8757332491681272,-0.9933732500269606,27.601910990098148,-9.002396988668782,320.01711990326316,12.0
0.057,-0.03376854652902704,0.9034943963016498,-1.00224440921155,27.919612229985717,-8.74029711267552,315.396313992227,12.0
0.058,-0.0347751177003902,0.9315709452373983,-1.010854591256035,28.23272533386118,-8.48043946681766,310.84069729929723,12.0
0.059,-0.03579016949540548,0.9599583401935304,-1.019206028609079,28.54131503727774,-8.222804476496473,306.34936210966345,12.0
0.06,-0.03681344427268918,0.9886520896089304,-1.0273009343534105,28.845445175345635,-7.96737293152607,301.9214134265665,12.0
0.061,-0.037844686597863136,1.017647765420926,-1.0351415024971906,29.145178692932852,-7.71412598094491,297.5559688261607,12.0
0.062,-0.03888364323326539,1.0469410024518215,-1.0427299082199994,29.44057765332761,-7.463045128485531,293.25215833413915,12.0
0.063,-0.03993006309771613,1.0765274968564185,-1.0500683084998939,29.731703260164643,-7.214112222373833,289.0091241147145,12.0
0.064,-0.04098369725680481,1.106403005529326,-1.0571588423487537,30.018615865791997,-6.96730945092672,284.82602035142867,12.0
0.065,-0.042044298905285576,1.1365633452658195,-1.0640036311468413,30.301374983118155,-6.7226193366630325,280.7020130787268,12.0
0.066,-0.0431116233491858,1.1670043919150723,-1.0706047789793776,30.58003929756591,-6.480024730370417,276.63628001202295,12.0
0.067,-0.04418542798816731,1.1977220795427208,-1.0769643729682328,30.85466667889321,-6.239508805231015,272.62801037964925,12.0
0.068,-0.045265472298128585,1.2287123996024159,-1.0830844835988773,31.125314192886055,-6.001055051004039,268.67640475661796,12.0
0.069,-0.04635151782256175,1.2599714003798033,-1.0889671649370638,31.39203810920346,-5.76464726984479,264.7806749528114,12.0
0.07,-0.047443328164095466,1.2914951864438131,-1.0946144548414496,31.65489390911817,-5.530269572171264,260.9400439026495,12.0
0.071,-0.048540668944405146,1.3232799171207272,-1.1000283755665416,31.913936307054588,-5.297906366677136,257.1537453596131,12.0
0.072,-0.04964330779910427,1.3553218060522154,-1.1052109339303007,32.169219256819964,-5.067542356846307,253.4210238072694,12.0
0.073,-0.050751014362727935,1.3876171204483903,-1.1101641216027947,32.42079596214075,-4.839162535643972,249.74113430940994,12.0
0.074,-0.05186356025359404,1.4201621803386786,-1.1148899153946075,32.66871888722869,-4.612752180199468,246.11334235977117,12.0
0.075,-0.0529807190589235,1.4529533578323184,-1.119390277540277,32.91303976720988,-4.388296846551913,242.53692373369876,12.0
0.076,-0.054102266320212214,1.4859870763882692,-1.123667155976854,33.153809618419785,-4.165782364457687,239.01116434171252,12.0
0.077,-0.05522797952185959,1.5192598101899855,-1.127722484583123,33.39107874722027,-3.9451948328313096,235.53536010398193,12.0
0.078,-0.05635763807871329,1.5527680834872226,-1.131558183429274,33.624896759279416,-3.726520614995043,232.10881681826103,12.0
0.079,-0.05749102331561317,1.5865084696852285,-1.1351761591163518,33.855312572406746,-3.509746332422811,228.73084997753944,12.0
0.08,-0.05862791845716328,1.6204775907602496,-1.1385783049964382,34.08237442479242,-3.2948588604436972,225.40078465270813,12.0
0.081,-0.05976810861460264,1.6546721165844105,-1.1417665014241418,34.306129884521056,-3.0818453234098397,222.11795535720213,12.0
0.082,-0.060911380772853914,1.6890887642577699,-1.144742616004093,34.52662585898305,-2.8706930899143703,218.8817059131,12.0
0.083,-0.062057523777801805,1.7237242974492175,-1.1475085038338495,34.74390860416011,-2.6613897680695153,215.6913893190089,12.0
0.084,-0.06320632832379498,1.7585755257460378,-1.1500660077422957,34.95802373378727,-2.453923200844165,212.54636761970363,12.0
0.085,-0.06435758694346345,1.7936393040801155,-1.1524169585005413,35.169016227435996,-2.2482814618687934,209.44601179103543,12.0
0.086,-0.06551109399605717,1.8289125321075528,-1.1545631750470458,35.37693043925068,-2.0444528509688453,206.38970161560474,12.0
0.087,-0.0666666456520662,1.8643921534689438,-1.156506464751602,35.58181010836124,-1.8424258889905394,203.37682553473155,12.0
0.088,-0.06782403988358834,1.9000751552378694,-1.158248623614112,35.78369836664832,-1.642189313763775,200.40678053788312,12.0
0.089,-0.06898307645304702,1.935958567317308,-1.1597914364794986,35.98263774723918,-1.44373207576138,197.47897204177457,12.0
0.09,-0.07014355690210189,1.9720394618438435,-1.1611366772484963,36.17867019289238,-1.24704333381385,194.59281377104836,12.0
0.091,-0.07130528454075817,2.0083149525998896,-1.162286109084273,36.37183706426847,-1.0521124508811592,191.74772764057792,12.0
0.092,-0.07246806443666935,2.0447821944337807,-1.1632414846149457,36.562179148088525,-0.8589289898809849,188.94314363936346,12.0
0.093,-0.0736317034058368,2.081438382724224,-1.1640045461233957,36.749736664671474,-0.6674827097797218,186.17849972321568,12.0
0.094,-0.07479601000213869,2.118280752811284,-1.164577025742814,36.93454927593619,-0.4777635615065572,183.45324170088384,12.0
0.095,-0.07596079450567958,2.1553065793936472,-1.1649606456580714,37.116656093872166,-0.28976168368913324,180.766823113579,12.0
0.096,-0.07712586891377554,2.1925131760078322,-1.1651571182855982,37.29609568786431,-0.10346739886498124,178.11870513069198,12.0
0.097,-0.0782910469312335,2.229897894488065,-1.1651681464557524,37.472906092285626,0.08112879040388243,175.5083564417404,12.0
0.098,-0.07945614396080022,2.267458124433361,-1.1649954235914335,37.647124813987155,0.2640362053628298,172.93525314977865,12.0
0.099,-0.08062097709377612,2.305191292681677,-1.1646406338830029,37.818788839687286,0.44526399484389145,170.39887866624096,12.0
0.1,-0.08178536510079085,2.34309486279107,-1.1641054524595613,37.98793464326128,0.6248211389924361,167.89872360720523,12.0
0.101,-0.08294912842451423,2.3811663345809664,-1.1633915455406039,38.15459819218652,0.8027164526363961,165.4342857015993,12.0
0.102,-0.08411208917005707,2.4194032436064092,-1.1625005706063711,38.31881495492587,0.9789585890277941,163.00506968616185,12.0
0.103,-0.08527407109463538,2.4578031606124218,-1.1614341765727187,38.48061990858848,1.153556043685973,160.6105871964984,12.0
0.104,-0.08643489960008136,2.496363691075814,-1.160194003938207,38.640047545363004,1.3265171577260269,158.2503566754908,12.0
0.105,-0.08759440172446044,2.535082474722412,-1.1587816849371726,38.797131879294085,1.4978501213157083,155.92390327687093,12.0
0.106,-0.08875240613382976,2.5739571850507237,-1.1571988436894614,38.95190645296719,1.6675629770825173,153.6307587701013,12.0
0.107,-0.08990874311413344,2.61298552886191,-1.155447096346886,39.10440434410354,1.8356636234717438,151.37046144653647,12.0
0.108,-0.09106324456325739,2.6521652457967293,-1.1535280512362214,39.254658172056125,2.0021598180516316,149.1425560269974,12.0
0.109,-0.09221574398686505,2.6914941079838144,-1.151443308965617,39.402700102741456,2.1670591801730525,146.9465935914491,12.0
0.11,-0.09336607648760191,2.7309699194992225,-1.1491944625897272,39.5485618562195,2.3303691946871368,144.78213147129117,12.0
0.111,-0.09451407875535568,2.770590515858794,-1.146783097763232,39.692274713811784,2.4920972154633008,142.64873314818178,12.0
0.112,-0.09565958906182626,2.810353763637093,-1.1442107928530043,39.833869523441436,2.652250468175141,140.54596817799003,12.0
0.113,-0.09680244725321266,2.8502575600344806,-1.141479119065597,39.973376705700325,2.810836053367364,138.47341210448985,12.0
0.114,-0.09794249474300962,2.890299832449733,-1.1385896405718474,40.11082625983705,2.967860949477558,136.43064637418686,12.0
0.115,-0.0990795745049095,2.9304785380580993,-1.1355439146286492,40.24624776966757,3.1233320158136992,134.41725825224893,12.0
0.116,-0.10021353106580527,2.9707916633946687,-1.1323434916979573,40.37967040941025,3.277255995487886,132.43284073951966,12.0
0.117,-0.10134421049888995,3.011237223942926,-1.1289899155630856,40.51112294944694,3.429639518307141,130.47699249058726,12.0
0.118,-0.10247146041684826,3.051813263728374,-1.1254847234423522,40.640633762011916,3.580489103621863,128.5493177328873,12.0
0.119,-0.10359512996513626,3.0925178549171033,-1.1218294461001406,40.768230826810395,3.729811163132746,126.649426186812,12.0
0.12,-0.10471506981542553,3.1333490974214837,-1.1180256079546838,40.89394173653602,3.8776120036437627,124.77693298726035,12.0
0.121,-0.10583113217449806,3.1743051189459326,-1.1140747270426599,41.01779369620757,4.023897827316855,122.93145869248367,12.0
0.122,-0.10694317076558746,3.215384074254728,-1.1099783152343081,41.13981353342924,4.1686747363048475,121.1126291386862,12.0
0.123,-0.1080510408118669,3.2565841445030927,-1.1057378784271854,41.260027707761715,4.311948737014256,119.32007530719582,12.0
0.124,-0.10915459903920785,3.297903537116555,-1.1013549165618208,41.37846231239284,4.453725741258884,117.55343330039004,12.0
0.125,-0.11025370367017223,3.339340485424482,-1.0968309237159586,41.495143079259655,4.594011568787815,115.81234426889571,12.0
0.126,-0.11134821441808052,3.38089324829823,-1.0921673881964615,41.61009538410468,4.732811949773907,114.09645433973093,12.0
0.127,-0.11243799248115185,3.4225601097938094,-1.0873657926289264,41.723344251468,4.870132527263415,112.40541454536657,12.0
0.128,-0.11352290053671273,3.464339378798961,-1.0824276140450695,41.834914359616604,5.005978859587453,110.73888075368669,12.0
0.129,-0.1146028027354699,3.5062293886845266,-1.077354323967935,41.94483004541259,5.140356422735927,109.09651359882497,12.0
0.13,-0.11567756469584418,3.5482284969600255,-1.0721473884949804,42.053115309121594,5.273270612694599,107.47797841285865,12.0
0.131,-0.11674705349836104,3.5903350849333124,-1.0668082683790965,42.15979381916315,5.404726747745993,105.88294515833466,12.0
0.132,-0.11781113768015171,3.63254755737575,-1.0613384191070798,42.264888916782766,5.53473007072637,104.31108836191436,12.0
0.133,-0.11886968724576119,3.6748643426246317,-1.0557392908251921,42.368423614572414,5.663285748850004,102.7620871348474,12.0
0.134,-0.11992257364965465,3.7172838919337403,-1.0500123285260268,42.47042060556727,5.790398877679634,101.23562504419809,12.0
0.135,-0.12096966977886182,3.759804678830153,-1.0441589722326314,42.57090227225428,5.916074485049974,99.73138998532914,12.0
0.136,-0.12201084995774009,3.8024251990631885,-1.038180656975811,42.6698906872498,6.040317531701742,98.24907417197072,12.0
0.137,-0.12304598994292588,3.8451439702943597,-1.032078812861111,42.767407617620336,6.163132913335762,96.78837407488723,12.0
0.138,-0.12407496691833662,3.8879595317912115,-1.0258548651339308,42.86347452914803,6.28452546263261,95.34899036133835,12.0
0.139,-0.1250976594902197,3.9308704441249542,-1.0195102342428115,42.95811259054223,6.4044999512386696,93.93062783531195,12.0
0.14,-0.12611394768224563,3.973875288871808,-1.013046335900952,43.051342677598505,6.52306109171904,92.53299537851069,12.0
0.141,-0.12712371293064217,4.016972668317957,-1.006464581145999,43.143185377306224,6.640213539478028,91.15580589207879,12.0
0.142,-0.1281268380793659,4.060161205168036,-0.999766376398161,43.23366099190618,6.755961894647825,89.79877623904372,12.0
0.143,-0.12912320737530836,4.103439542257049,-0.9929531235166973,43.32278954289931,6.870310703945977,88.46162718746174,12.0
0.144,-0.13011270646356377,4.146806342266417,-0.986026219854518,43.41059077499711,6.983264462498052,87.14408335439713,12.0
0.145,-0.13109522239713256,4.190260287811613,-0.9789870581645596,43.49708415482557,7.094827613600865,85.84587322394039,12.0
0.146,-0.13207064362234056,4.2338000809115,-0.9718370267521936,43.582288878358135,7.2050045518801635,84.5667290420742,12.0
0.147,-0.13303885996237425,4.277424442412024,-0.9645775096456054,43.66622387899261,7.313799626688565,83.30638670246341,12.0
0.148,-0.1339997626220996,4.321132111956548,-0.9572098865482752,43.74890782791075,7.421217142480263,82.06458574114859,12.0
0.149,-0.13495324418367904,4.364921847723441,-0.9497355328839729,43.830359137723306,7.527261360456535,80.84106928489028,12.0
0.15,-0.13589919860221905,4.408792426166953,-0.9421558198402826,43.91059596606871,7.631936500181951,79.6355840001821,12.0
0.151,-0.13683752120144532,4.452742641761284,-0.9344721144106993,43.989636219166385,7.735246741171901,78.4478800429132,12.0
0.152,-0.13776810866940312,4.496771306747781,-0.9266857794353438,44.067497555325765,7.837196224452034,77.2777110086659,12.0
0.153,-0.13869085905418022,4.540877250885188,-0.9187981736403363,44.14419738841214,7.937789054090096,76.12483388363559,12.0
0.154,-0.13960567175964955,4.585059321202871,-0.9108106516758743,44.21975289127042,8.037029298700894,74.98900899615197,12.0
0.155,-0.14051244754122916,4.62931638175693,-0.9027245641530566,44.29418099910785,8.134920992924874,73.86999996879247,12.0
0.156,-0.14141108850166959,4.673647313389475,-0.8945412576793487,44.36749841283224,8.231468138879114,72.76757367113169,12.0
