Time[sec],x1[k+1],x2[k+1],x3[k+1],x4[k+1]
0.001,-1.3961208525269318e-05,0.0003571746085478457,-0.02785025855246564,0.7126494745066222
0.002,-5.5556677980130365e-05,0.0014219183130473846,-0.0552691283536485,1.4151600574211043
0.003,-0.00012435704512875944,0.003184162529312611,-0.08226073661931751,2.107674012022778
0.004,-0.0002199370896991231,0.005633980912430063,-0.10882915779522656,2.7903315973675356
0.005,-0.0003418756401680536,0.008761586397795151,-0.13497841482326034,3.463271110149482
0.006,-0.0004897555227520343,0.012557329255144228,-0.16071247999433858,4.126628912251528
0.007,-0.0006631635110014773,0.01701169516071149,-0.18603527579286377,4.780539458039005
0.008,-0.0008616902763351307,0.022115303300327512,-0.2109506757270936,5.425135321214565
0.009,-0.0010849303406414578,0.02785890454013841,-0.23546250512871442,6.0605472207146
0.01,-0.0013324820307152859,0.03423337965650092,-0.2595745419253449,6.686904045766708
0.011,-0.001603947424464315,0.04122973729926376,-0.2832905175348281,7.304332884726786
0.012,-0.0018989323049227284,0.048839112207893574,-0.3066141176440231,7.9129590503316924
0.013,-0.0022170461136492648,0.05705276340761573,-0.32954898299672425,8.512906105235242
0.014,-0.0025579019084255323,0.06586207254507848,-0.3520987101178926,9.104295885566305
0.015,-0.0029211163392545625,0.07525854281807676,-0.3742668517667471,9.687248516065571
0.016,-0.003306309580494507,0.08523379648095307,-0.3960569180398995,10.261882445413368
0.017,-0.0037131052944519,0.09577957337131637,-0.4174723770083497,10.828314467079352
0.018,-0.004141130593110194,0.10688772937610226,-0.43851665538215334,11.386659741032089
0.019,-0.004590015997229126,0.11855023481309078,-0.45919313921360866,11.937031816647018
0.02,-0.005059395380647873,0.13075917234222562,-0.4795051748144615,12.47954266227934
0.021,-0.005548905948318178,0.14350673595063998,-0.4994560691842322,13.014302679617291
0.022,-0.006058188198199232,0.1567852294247861,-0.5190490906719996,13.541420725305574
0.023,-0.006586885881436205,0.17058706476851365,-0.5382874696627419,14.061004133334894
0.024,-0.007134645965615442,0.18490476071950024,-0.5571743992187772,14.573158736037236
0.025,-0.007701118576290193,0.1997309405720752,-0.5757130360347138,15.077988894910614
0.026,-0.00828595697750254,0.215058331246047,-0.5939065008288166,15.57559751378568
0.027,-0.008888817542981025,0.23087976205815205,-0.6117578788687091,16.066086056206533
0.028,-0.009509359715321707,0.24718816311013175,-0.629270220670296,16.549554568244464
0.029,-0.0101472459720529,0.26397656389714974,-0.6464465425968877,17.026101698188885
0.03,-0.010802141786314404,0.2812380917504325,-0.6632898275292177,17.495824718583577
0.031,-0.011473715595833022,0.29896597053814344,-0.6798030254234325,17.958819544608065
0.032,-0.012161638775156391,0.31715351946835746,-0.6959890538244081,18.415180751013512
0.033,-0.012865585601298038,0.33579415168897114,-0.7118507984660453,18.865001591931573
0.034,-0.013585233222672336,0.3548813729906931,-0.7273911138264699,19.308374019223947
0.035,-0.014320261624615471,0.37440878040632347,-0.7426128237258006,19.74538870229734
0.036,-0.015070353597661058,0.3943700608960297,-0.7575187218869882,20.176135046701674
0.037,-0.01583519471457752,0.41475899030335767,-0.772111572382317,20.600701208899597
0.038,-0.016614473298322798,0.4355694320332002,-0.7863941101955234,21.019174114966273
0.039,-0.01740788039359575,0.4567953358416576,-0.8003690417361358,21.431639477706184
0.04,-0.018215109736643375,0.47843073657424123,-0.8140390453740444,21.83818181449898
0.041,-0.019035857723852023,0.5004697528685024,-0.8274067719876801,22.238884465646926
0.042,-0.019869823392270128,0.5229065862215192,-0.8404748453609301,22.63382960756546
0.043,-0.02071670838997942,0.5457355197496616,-0.8532458627057166,23.023098270321185
0.044,-0.021576216950171843,0.5689509170626795,-0.8657223951364684,23.4067703535533
0.045,-0.022448055863393365,0.5925472210841629,-0.8779069881654381,23.784924643151633
0.046,-0.023331934445836252,0.616518952754545,-0.8898021622449565,24.157638829593072
0.047,-0.02422756452692211,0.6408607103171642,-0.9014104130701764,24.524989518039156
0.048,-0.025134660421070154,0.6655671681293107,-0.9127342120749693,24.887052245143853
0.049,-0.026052938903453428,0.6906330755951042,-0.9237760068769135,25.243901494138964
0.05,-0.02698211918687644,0.7160532561338007,-0.9345382217067084,25.595610709417826
0.051,-0.027921922899136743,0.7418226061643151,-0.9450232578298703,25.9422523108889
0.052,-0.028872074060859725,0.7679360941056327,-0.9552334939608451,26.283897708103712
0.053,-0.0298322990572027,0.7943887591953631,-0.965171286750479,26.620617316953226
0.054,-0.030802326602408035,0.8211757100958803,-0.974838971359355,26.95248057936424
0.055,-0.03178188774649498,0.848292124763931,-0.9842388615128946,27.279555965143395
0.056,-0.03277071584341791,0.8757332491681272,-0.9933732500269606,27.601910990098148
0.057,-0.03376854652902704,0.9034943963016498,-1.00224440921155,27.919612229985717
0.058,-0.0347751177003902,0.9315709452373983,-1.010854591256035,28.23272533386118
0.059,-0.03579016949540548,0.9599583401935304,-1.019206028609079,28.54131503727774
0.06,-0.03681344427268918,0.9886520896089304,-1.0273009343534105,28.845445175345635
0.061,-0.037844686597863136,1.017647765420926,-1.0351415024971906,29.145178692932852
0.062,-0.03888364323326539,1.0469410024518215,-1.0427299082199994,29.44057765332761
0.063,-0.03993006309771613,1.0765274968564185,-1.0500683084998939,29.731703260164643
0.064,-0.04098369725680481,1.106403005529326,-1.0571588423487537,30.018615865791997
0.065,-0.042044298905285576,1.1365633452658195,-1.0640036311468413,30.301374983118155
0.066,-0.0431116233491858,1.1670043919150723,-1.0706047789793776,30.58003929756591
0.067,-0.04418542798816731,1.1977220795427208,-1.0769643729682328,30.85466667889321
0.068,-0.045265472298128585,1.2287123996024159,-1.0830844835988773,31.125314192886055
0.069,-0.04635151782256175,1.2599714003798033,-1.0889671649370638,31.39203810920346
0.07,-0.047443328164095466,1.2914951864438131,-1.0946144548414496,31.65489390911817
0.071,-0.048540668944405146,1.3232799171207272,-1.1000283755665416,31.913936307054588
0.072,-0.04964330779910427,1.3553218060522154,-1.1052109339303007,32.169219256819964
0.073,-0.050751014362727935,1.3876171204483903,-1.1101641216027947,32.42079596214075
0.074,-0.05186356025359404,1.4201621803386786,-1.1148899153946075,32.66871888722869
0.075,-0.0529807190589235,1.4529533578323184,-1.119390277540277,32.91303976720988
0.076,-0.054102266320212214,1.4859870763882692,-1.123667155976854,33.153809618419785
0.077,-0.05522797952185959,1.5192598101899855,-1.127722484583123,33.39107874722027
0.078,-0.05635763807871329,1.5527680834872226,-1.131558183429274,33.624896759279416
0.079,-0.05749102331561317,1.5865084696852285,-1.1351761591163518,33.855312572406746
0.08,-0.05862791845716328,1.6204775907602496,-1.1385783049964382,34.08237442479242
0.081,-0.05976810861460264,1.6546721165844105,-1.1417665014241418,34.306129884521056
0.082,-0.060911380772853914,1.6890887642577699,-1.144742616004093,34.52662585898305
0.083,-0.062057523777801805,1.7237242974492175,-1.1475085038338495,34.74390860416011
0.084,-0.06320632832379498,1.7585755257460378,-1.1500660077422957,34.95802373378727
0.085,-0.06435758694346345,1.7936393040801155,-1.1524169585005413,35.169016227435996
0.086,-0.06551109399605717,1.8289125321075528,-1.1545631750470458,35.37693043925068
0.087,-0.0666666456520662,1.8643921534689438,-1.156506464751602,35.58181010836124
0.088,-0.06782403988358834,1.9000751552378694,-1.158248623614112,35.78369836664832
0.089,-0.06898307645304702,1.935958567317308,-1.1597914364794986,35.98263774723918
0.09,-0.07014355690210189,1.9720394618438435,-1.1611366772484963,36.17867019289238
0.091,-0.07130528454075817,2.0083149525998896,-1.162286109084273,36.37183706426847
0.092,-0.07246806443666935,2.0447821944337807,-1.1632414846149457,36.562179148088525
0.093,-0.0736317034058368,2.081438382724224,-1.1640045461233957,36.749736664671474
0.094,-0.07479601000213869,2.118280752811284,-1.164577025742814,36.93454927593619
0.095,-0.07596079450567958,2.1553065793936472,-1.1649606456580714,37.116656093872166
0.096,-0.07712586891377554,2.1925131760078322,-1.1651571182855982,37.29609568786431
0.097,-0.0782910469312335,2.229897894488065,-1.1651681464557524,37.472906092285626
0.098,-0.07945614396080022,2.267458124433361,-1.1649954235914335,37.647124813987155
0.099,-0.08062097709377612,2.305191292681677,-1.1646406338830029,37.818788839687286
0.1,-0.08178536510079085,2.34309486279107,-1.1641054524595613,37.98793464326128
0.101,-0.08294912842451423,2.3811663345809664,-1.1633915455406039,38.15459819218652
0.102,-0.08411208917005707,2.4194032436064092,-1.1625005706063711,38.31881495492587
0.103,-0.08527407109463538,2.4578031606124218,-1.1614341765727187,38.48061990858848
0.104,-0.08643489960008136,2.496363691075814,-1.160194003938207,38.640047545363004
0.105,-0.08759440172446044,2.535082474722412,-1.1587816849371726,38.797131879294085
0.106,-0.08875240613382976,2.5739571850507237,-1.1571988436894614,38.95190645296719
0.107,-0.08990874311413344,2.61298552886191,-1.155447096346886,39.10440434410354
0.108,-0.09106324456325739,2.6521652457967293,-1.1535280512362214,39.254658172056125
0.109,-0.09221574398686505,2.6914941079838144,-1.151443308965617,39.402700102741456
0.11,-0.09336607648760191,2.7309699194992225,-1.1491944625897272,39.5485618562195
0.111,-0.09451407875535568,2.770590515858794,-1.146783097763232,39.692274713811784
0.112,-0.09565958906182626,2.810353763637093,-1.1442107928530043,39.833869523441436
0.113,-0.09680244725321266,2.8502575600344806,-1.141479119065597,39.973376705700325
0.114,-0.09794249474300962,2.890299832449733,-1.1385896405718474,40.11082625983705
0.115,-0.0990795745049095,2.9304785380580993,-1.1355439146286492,40.24624776966757
0.116,-0.10021353106580527,2.9707916633946687,-1.1323434916979573,40.37967040941025
0.117,-0.10134421049888995,3.011237223942926,-1.1289899155630856,40.51112294944694
0.118,-0.10247146041684826,3.051813263728374,-1.1254847234423522,40.640633762011916
0.119,-0.10359512996513626,3.0925178549171033,-1.1218294461001406,40.768230826810395
0.12,-0.10471506981542553,3.1333490974214837,-1.1180256079546838,40.89394173653602
0.121,-0.10583113217449806,3.1743051189459326,-1.1140747270426599,41.01779369620757
0.122,-0.10694317076558746,3.215384074254728,-1.1099783152343081,41.13981353342924
0.123,-0.1080510408118669,3.2565841445030927,-1.1057378784271854,41.260027707761715
0.124,-0.10915459903920785,3.297903537116555,-1.1013549165618208,41.37846231239284
0.125,-0.11025370367017223,3.339340485424482,-1.0968309237159586,41.495143079259655
0.126,-0.11134821441808052,3.38089324829823,-1.0921673881964615,41.61009538410468
0.127,-0.11243799248115185,3.4225601097938094,-1.0873657926289264,41.723344251468
0.128,-0.11352290053671273,3.464339378798961,-1.0824276140450695,41.834914359616604
0.129,-0.1146028027354699,3.5062293886845266,-1.077354323967935,41.94483004541259
0.13,-0.11567756469584418,3.5482284969600255,-1.0721473884949804,42.053115309121594
0.131,-0.11674705349836104,3.5903350849333124,-1.0668082683790965,42.15979381916315
0.132,-0.11781113768015171,3.63254755737575,-1.0613384191070798,42.264888916782766
0.133,-0.11886968724576119,3.6748643426246317,-1.0557392908251921,42.368423614572414
0.134,-0.11992257364965465,3.7172838919337403,-1.0500123285260268,42.47042060556727
0.135,-0.12096966977886182,3.759804678830153,-1.0441589722326314,42.57090227225428
0.136,-0.12201084995774009,3.8024251990631885,-1.038180656975811,42.6698906872498
0.137,-0.12304598994292588,3.8451439702943597,-1.032078812861111,42.767407617620336
0.138,-0.12407496691833662,3.8879595317912115,-1.0258548651339308,42.86347452914803
0.139,-0.1250976594902197,3.9308704441249542,-1.0195102342428115,42.95811259054223
0.14,-0.12611394768224563,3.973875288871808,-1.013046335900952,43.051342677598505
0.141,-0.12712371293064217,4.016972668317957,-1.006464581145999,43.143185377306224
0.142,-0.1281268380793659,4.060161205168036,-0.999766376398161,43.23366099190618
0.143,-0.12912320737530836,4.103439542257049,-0.9929531235166973,43.32278954289931
0.144,-0.13011270646356377,4.146806342266417,-0.986026219854518,43.41059077499711
0.145,-0.13109522239713256,4.190260287811613,-0.9789870581645596,43.49708415482557
0.146,-0.13207064362234056,4.2338000809115,-0.9718370267521936,43.582288878358135
0.147,-0.13303885996237425,4.277424442412024,-0.9645775096456054,43.66622387899261
0.148,-0.1339997626220996,4.321132111956548,-0.9572098865482752,43.74890782791075
0.149,-0.13495324418367904,4.364921847723441,-0.9497355328839729,43.830359137723306
0.15,-0.13589919860221905,4.408792426166953,-0.9421558198402826,43.91059596606871
0.151,-0.13683752120144532,4.452742641761284,-0.9344721144106993,43.989636219166385
0.152,-0.13776810866940312,4.496771306747781,-0.9266857794353438,44.067497555325765
0.153,-0.13869085905418022,4.540877250885188,-0.9187981736403363,44.14419738841214
0.154,-0.13960567175964955,4.585059321202871,-0.9108106516758743,44.21975289127042
0.155,-0.14051244754122916,4.62931638175693,-0.9027245641530566,44.29418099910785
0.156,-0.14141108850166959,4.673647313389475,-0.8945412576793487,44.36749841283224
0.157,-0.1423014980995027,4.718051013802788,-0.8862620747475003,44.43972159792332
0.158,-0.14318358113690993,4.762526397128057,-0.8778883538599829,44.51086679047397
0.159,-0.14405724374404427,4.80707239340904,-0.8694214296931755,44.58095000443827
0.16,-0.14492239338364507,4.851687948588915,-0.860862633027339,44.64998703174192
0.161,-0.14577893884708967,4.89637202428823,-0.8522132907740267,44.71799344535603
0.162,-0.14662679025046038,4.941123597585629,-0.8434747260023561,44.784984602331704
0.163,-0.14746585903062454,4.985941660801299,-0.8346482579641775,44.85097564679631
0.164,-0.14829605794132547,5.03082522128306,-0.8257352021181805,44.91598151291222
0.165,-0.14911730104928209,5.075773301195042,-0.8167368701529732,44.980016927799184
0.166,-0.1499295037302954,5.1207849373088905,-0.8076545700091737,45.043096414420965
0.167,-0.1507325826653593,5.165859180797431,-0.7984896059005494,45.10523429443733
0.168,-0.15152645583677693,5.2109950970308025,-0.7892432783342034,45.16644469102116
0.169,-0.1523110425343192,5.256191765611446,-0.7799168840023568,45.22674152827021
0.17,-0.15308626334567055,5.3014482800413205,-0.7705117158728149,45.2861385358632
0.171,-0.15385204014243667,5.346763747286906,-0.7610290633349397,45.34464925517379
0.172,-0.15460829608365542,5.392137287758731,-0.7514702121225019,45.40228703947422
0.173,-0.15535495561208865,5.437568035123162,-0.7418364443273757,45.45906505653119
0.174,-0.1560919444505172,5.483055136116529,-0.7321290384123765,45.51499629116885
0.175,-0.1568191895980371,5.528597750361527,-0.7223492692232713,45.57009354779968
0.176,-0.15753661932635513,5.574195050185843,-0.7124984079999964,45.62436945292398
0.177,-0.1582441631760824,5.619846220442966,-0.7025777223871129,45.67783645759882
0.178,-0.15894175195302354,5.6655504583351055,-0.6925884764435362,45.730506839877194
0.179,-0.15962931772446068,5.711306973238186,-0.6825319306515655,45.78239270721805
0.18,-0.16030679381542962,5.757114986528845,-0.6724093419252517,45.83350599886814
0.181,-0.16097411481366722,5.802973731619732,-0.6622219634929108,45.883858485260305
0.182,-0.16163121656155455,5.848882453687844,-0.651971044966482,45.933461771809846
0.183,-0.16227803614269706,5.894840409277557,-0.6416578324875049,45.98232730450685
0.184,-0.16291451188495654,5.940846866296833,-0.6312835686350177,46.03046636987598
0.185,-0.16354058335684152,5.986901103857704,-0.6208494924285339,46.077890097168
0.186,-0.16415619136389195,6.033002412118726,-0.6103568393303758,46.12460946052359
0.187,-0.16476127794505663,6.0791500921293595,-0.5998068412473934,46.17063528111005
0.188,-0.16535578636906187,6.125343455676242,-0.5892007265320959,46.21597822923152
0.189,-0.16593966113077038,6.1715818251312955,-0.5785397199832228,46.2606488264134
0.19,-0.16651284794752885,6.217864533301634,-0.5678250428457812,46.30465744746165
0.191,-0.1670752937555026,6.26419092328122,-0.5570579128105764,46.348014322497455
0.192,-0.1676269467059963,6.310560348304226,-0.5462395440132658,46.39072953896814
0.193,-0.16816775616862492,6.356972171764492,-0.5353711469216157,46.43281304126744
0.194,-0.16869767272468544,6.403425767002309,-0.5244539283809775,46.47427463370622
0.195,-0.16921664815498644,6.449920516960465,-0.5134890917489564,46.515123985366046
0.196,-0.1697246354418198,6.496455814181004,-0.5024778368000371,46.555370630048245
0.197,-0.17022158876533633,6.543031060669931,-0.4914213597202841,46.59502396812476
0.198,-0.17070746349990812,6.589645667763575,-0.4803208531015816,46.634093268365916
0.199,-0.17118221621047716,6.63629905599657,-0.4691775059354212,46.672587669745326
0.2,-0.17164580464888937,6.682990654971449,-0.4579925036062587,46.710516183222495
0.201,-0.17209818775021302,6.729719903229774,-0.4467670278844642,46.747887693503635
0.202,-0.17253932562904017,6.776486248124806,-0.4355022569188861,46.78471096078131
0.203,-0.17296917957577052,6.823289145695637,-0.42419936522905294,46.82099462245334
0.204,-0.17338771205287606,6.870128060542776,-0.4128595236970341,46.85674719482163
0.205,-0.1737948866975942,6.917002465864168,-0.40148389944194285,46.89197707247253
0.206,-0.1741906683154843,6.963911843267767,-0.3900736558595921,46.926692530887834
0.207,-0.1745750228679359,7.010855682436831,-0.3786299527712588,46.96090173118561
0.208,-0.1749479174741737,7.057833481154592,-0.36715394630864523,46.994612719666605
0.209,-0.17530932040751293,7.104844745188985,-0.3556467889025373,47.02783342938443
0.21,-0.17565920109159014,7.1518889881786185,-0.34410962927123473,47.06057168169849
0.211,-0.17599753009657368,7.198965731520056,-0.3325436124086919,47.09283518780839
0.212,-0.17632427913535276,7.246074504256407,-0.32094987957238263,47.1246315502704
0.213,-0.17663942105970423,7.293214842967164,-0.3093295682709134,47.155968264496444
0.214,-0.17694292985643614,7.340386291659266,-0.29768381225140234,47.18685272023599
0.215,-0.17723478064350706,7.3875884016593485,-0.28601374148664416,47.217292203041524
0.216,-0.17751494966612053,7.434820731507152,-0.27432048216208027,47.24729389571791
0.217,-0.17778341429279332,7.482082846850046,-0.2626051566625941,47.27686487975625
0.218,-0.17804015301286538,7.5293743203761565,-0.2508688835312973,47.30601213621009
0.219,-0.178285145447766,7.576694732100725,-0.2391127771667173,47.33474254146403
0.22,-0.178518372324072,7.624043668678027,-0.227337948244067,47.36306287709493
0.221,-0.17873981547328072,7.671420723397589,-0.215545503629125,47.39097982983792
0.222,-0.17894945783174368,7.718825496186221,-0.2037365462884025,47.418499991468494
0.223,-0.17914728343672717,7.766257593512832,-0.19191217527212434,47.44562986009148
0.224,-0.17933327742245045,7.8137166282943795,-0.1800734856969826,47.4723758414141
0.225,-0.17950742601610092,7.861202219802923,-0.1682215687286765,47.49874425000367
0.226,-0.17966971653382557,7.908713993573768,-0.1563575115642537,47.52474131053018
0.227,-0.179820137376698,7.95625158131466,-0.14448239741426738,47.55037315899426
0.228,-0.1799586780266605,8.003814620816014,-0.13259730548476328,47.57564584394079
0.229,-0.1800853290424405,8.051402755862135,-0.12070331095911134,47.60056532765869
0.23,-0.18020008205544072,8.099015636143422,-0.10880148497969669,47.6251374873672
0.231,-0.1803029297656022,8.146652917169515,-0.09689289462948394,47.649368116388956
0.232,-0.18039386594087817,8.194314260287557,-0.08497860283270223,47.673262923800216
0.233,-0.18047288541644818,8.24199933269472,-0.07305966826056903,47.69682753416467
0.234,-0.18053998407786262,8.289707806992208,-0.06113714559302941,47.72006749391399
0.235,-0.18059515886291239,8.337439361277221,-0.04921208536408034,47.7429882699316
0.236,-0.18063840775774376,8.385193679071767,-0.037285533934122816,47.765595250501555
0.237,-0.18066972979264045,8.432970449243623,-0.0253585334689784,47.787893746372
