,x1[k],x2[k],x3[k],x4[k],d/dt x3[k],d/dt x4[k],voltage
0.0,0.37637874181812403,0.007925519439859237,0.5662042622026037,0.4781630388690796,0.27811162330637496,0.7542194674306446,1.0
0.001,0.3763756240301707,0.007925873177342184,0.5651171268749655,0.48547237860876036,0.2810333051017258,0.7504439106954188,1.0
0.002,0.3763663350167344,0.007926927674915641,0.5640468308147468,0.4926777280897209,0.28392699277782796,0.7467213243561845,1.0
0.003,0.3763509706623169,0.007928672960886373,0.562993212916008,0.49978054644534775,0.28679304229468383,0.74305096718276,1.0
0.004,0.376329625926222,0.00793109920443164,0.5619561141326884,0.5067822722525679,0.2896318036925201,0.739432108437156,1.0
0.005,0.37630239486359535,0.007934196712668703,0.5609353774291812,0.513684323961206,0.29244362121261275,0.7358640276545828,1.0
0.006,0.37626937052796705,0.007937955941181912,0.5599308480999714,0.5204880980147139,0.4844090498145011,0.46694044857091915,0.5
0.006999999999999999,0.37623376321745955,0.007942013703606095,0.5600295076328985,0.5198856382144816,0.48424630778021027,0.4672473593374633,0.5
0.008,0.376198717649916,0.007946013701458882,0.5601272306192331,0.5192916318248358,0.4840856147327229,0.467549976553717,0.5
0.009000000000000001,0.3761642285011437,0.007949956745280576,0.5602240288265825,0.5187059605902741,0.483926936639255,0.467848360577091,0.5
0.01,0.37613029051370717,0.007953843634273684,0.5603199138269284,0.5181285079175965,0.4837702399700716,0.4681425709152069,0.5
0.011000000000000001,0.37609689849582434,0.0079576751564613,0.5604148969995018,0.5175591588526467,0.483615491691789,0.468432666237769,0.5
0.012,0.37606404732026827,0.007961452088844785,0.560508989533648,0.5169978000571562,0.4834626592607066,0.46871870438838303,0.5
0.013000000000000001,0.37603173192333644,0.007965175197552259,0.5606022024315326,0.5164443197869347,0.48331171061651634,0.46900074239568856,0.5
0.013999999999999999,0.3759999473038267,0.007968845237986107,0.5606945465108295,0.5158986078702066,0.48316261417605416,0.4692788364844167,0.5
0.015,0.3759686885218173,0.007972462954997215,0.5607860324078718,0.5153605556820262,0.4830153388259515,0.4695530420884479,0.5
0.016,0.3759379506976743,0.007976029083028247,0.5608766705802675,0.5148300561232336,0.4828698539165611,0.46982341386155374,0.5
0.017,0.37590772901101455,0.00797954434626291,0.5609664713096181,0.5143070035985331,0.48272612925563724,0.4700900056885862,0.5
0.018000000000000002,0.3758780186996831,0.007983009458773338,0.5610554447042054,0.5137912939948457,0.48258413510209225,0.47035287069652737,0.5
0.019,0.3758488150587469,0.007986425124665221,0.5611436007016393,0.5132828246599938,0.48244384215984765,0.4706120612653695,0.5
0.02,0.3758201134397549,0.007989792038186751,0.5612309490708779,0.5127814943866896,0.4823052215731695,0.4708676290362901,0.5
0.021,0.3757919092502427,0.007993110883804635,0.5613174994136774,0.5122872034013569,0.48216824492335686,0.47111962491736326,0.5
0.022000000000000002,0.37576419795180377,0.007996382336473986,0.5614032611694028,0.5117998533245176,0.4820328842174735,0.47136809910377014,0.5
0.023,0.3757369750595535,0.007999607061719708,0.5614882436165712,0.5113193471588234,0.4818991118848167,0.47161310108391286,0.5
0.024,0.3757102361412657,0.00800278571576222,0.5615724558751638,0.5108455892705862,0.48176690077156625,0.47185467964884337,0.5
0.025,0.3756839768164947,0.008005918945645047,0.5616559069089694,0.5103784853710336,0.48163622413535834,0.47209288290183193,0.5
0.026000000000000002,0.3756581927557163,0.008009007389359914,0.5617386055278871,0.509917942497929,0.48150705563996093,0.4723277582677504,0.5
0.027000000000000003,0.37563287967930836,0.008012051675994475,0.5618205603906105,0.5094638689938786,0.48137936934900893,0.47255935250414555,0.5
0.027999999999999997,0.37560803335621273,0.008015052425924958,0.5619017800080766,0.5090161744780505,0.4812531397178696,0.47278771171567324,0.5
0.028999999999999998,0.3755836496040289,0.008018010250807369,0.5619822727434883,0.5085747698474231,0.4811283415938832,0.4730128813534677,0.5
0.03,0.3755597242878971,0.00802092575373913,0.5620620468152346,0.5081395672530469,0.4810049502095148,0.47323490622725845,0.5
0.031,0.3755362533196598,0.008023799529381748,0.5621411102991467,0.5077104800820275,0.4808829411771289,0.4734538305145683,0.5
0.032,0.37551323265708497,0.008026632164074678,0.5622194711306044,0.5072874229407905,0.4807622904841258,0.47366969776925755,0.5
0.033,0.3754906583031072,0.00802942423594695,0.5622971371066036,0.5068703116386795,0.480642974488171,0.4738825509298984,0.5
0.034,0.37546852630481986,0.008032176315063366,0.5623741158884131,0.5064590631664866,0.4805249699109944,0.474092432330734,0.5
0.035,0.37544683275163077,0.008034888963687417,0.5624504150062261,0.5060535956578721,0.4804082538273495,0.47429938372136643,0.5
0.036000000000000004,0.375425573776278,0.008037562736145757,0.5625260418570031,0.50565382840919,0.4802928036704813,0.4745034462566508,0.5
0.037000000000000005,0.37540474555359465,0.008040198179006254,0.5626010037076736,0.5052596818533466,0.4801785972246008,0.47470466051003807,0.5
0.038,0.3753843442996578,0.008042795831202775,0.5626753076974247,0.504871077541471,0.4800656126195675,0.4749030664829323,0.5
0.039,0.3753643662710778,0.00804535622414023,0.5627489608396529,0.5044879381274752,0.47995382832638733,0.47509870361257495,0.5
0.04,0.37534480776430224,0.008047879881797799,0.5628219700238848,0.5041101873528858,0.4798432231527875,0.4752916107797895,0.5
0.040999999999999995,0.3753256651148481,0.008050367320842435,0.5628943420178695,0.503737750030165,0.47973377623836017,0.47548182631749797,0.5
0.042,0.37530693469610427,0.008052819050803201,0.5629660834706943,0.5033705520171216,0.47962546704717424,0.4756693880237823,0.5
0.043,0.3752886129194076,0.00805523557406535,0.563037200912864,0.5030085202177337,0.4795182753678896,0.4758543331614716,0.5
0.044000000000000004,0.37527069623321907,0.008057617385991981,0.5631077007585285,0.5026515825642752,0.4794121813085582,0.4760366984672674,0.5
0.045,0.37525318112239864,0.008059964975031737,0.5631775893074724,0.5022996680014936,0.47930716529200745,0.4762165201598232,0.5
0.046,0.37523606410757027,0.00806227882281398,0.5632468727468952,0.501952706472618,0.47920320805174227,0.47639383394688944,0.5
0.047,0.3752193417444979,0.008064559404242293,0.5633155571531607,0.5016106289056143,0.4791002906279158,0.476568675032333,0.5
0.048,0.37520301062342015,0.008066807187594102,0.5633836484936477,0.501273367198546,0.4789983943630458,0.47674107812361305,0.5
0.049,0.3751870673679571,0.008069022634681079,0.5634511526296216,0.5009408541960273,0.4788975008951974,0.4769110774438013,0.5
0.05,0.3751715086351399,0.0080712062008502,0.5635180753164287,0.5006130236890229,0.47879759215779993,0.47707870673169145,0.5
0.051,0.3751563311147338,0.008073358335085313,0.563584422205378,0.500289810399923,0.47869865037527876,0.47724399924942046,0.5
0.052000000000000005,0.3751415315285682,0.008075479480107619,0.563650198845602,0.499971149967776,0.4786006580587294,0.4774069877900102,0.5
0.053,0.375127106629969,0.00807757007246196,0.56371541068568,0.4996569789356033,0.4785035980021834,0.4775677046838464,0.5
0.054000000000000006,0.3751130532032009,0.008079630542601584,0.5637800630752331,0.4993472347379364,0.4784074532789355,0.4777261818050445,0.5
0.055,0.37509936806291055,0.008081661314972979,0.5638441612665208,0.49904185568834375,0.4783122072378672,0.4778824505778208,0.5
0.055999999999999994,0.3750860480533053,0.008083662808138223,0.5639077104166631,0.49874078096146346,0.4782178434982101,0.47803654198566625,0.5
0.057,0.375073090047475,0.008085635434877112,0.5639707155895248,0.4984439505779969,0.47812434594514813,0.4781884865790101,0.5
0.057999999999999996,0.3750604909476204,0.008087579602160997,0.5640331817554465,0.49815130540849784,0.4780316987307553,0.4783383144732947,0.5
0.059000000000000004,0.3750482476844204,0.008089495711248715,0.5640951137930218,0.4978627871592738,0.47793988626985323,0.4784860553561755,0.5
0.06,0.37503635725732315,0.008091384154632139,0.564156516410302,0.49757833895457726,0.2886686763223619,0.7440373052235694,1.0
0.061,0.3750216987702819,0.008093599067547589,0.5631302591624978,0.5046072424823388,0.29150016926114863,0.7404054028422667,1.0
0.062,0.3750012158588621,0.00809648785206375,0.5621203211433918,0.5115361127748516,0.2943044573740619,0.7368244703721792,1.0
0.063,0.3749750014359987,0.008100040916885915,0.56112654579138,0.5183663537235217,0.29708188199043895,0.7332937947090086,1.0
0.064,0.374943147524559,0.008104248805330245,0.5601487785052466,0.5250993495788178,0.2998327787925828,0.7298126727728595,1.0
0.065,0.37490574526846976,0.008109102193439655,0.5591868666116852,0.5317364652265062,0.30255747789902887,0.7263804113670433,1.0
0.066,0.37486288476806884,0.008114591908681147,0.5582406598886503,0.5382790431132426,0.49443652004967187,0.4575907617148929,0.5
0.067,0.37481777359393725,0.00812035510709263,0.5583971436183609,0.5374190773585222,0.4941881106974237,0.45802973724468155,0.5
0.068,0.37477355355762365,0.008126035852136062,0.558552196721927,0.5365712026762642,0.49394245589821656,0.45846258129216555,0.5
0.069,0.374730216519946,0.008131635303154439,0.5587058350144518,0.5357352501917624,0.4936995084654546,0.4588893799731464,0.5
0.07,0.37468775443142244,0.008137154603298941,0.5588580740403438,0.5349110533989895,0.4934592219396809,0.459310218191962,0.5
0.071,0.37464615933072765,0.008142594879757103,0.5590089290770536,0.534098448130216,0.4932215505800535,0.45972517965698134,0.5
0.07200000000000001,0.3746054233419622,0.008147957244157717,0.5591584151425484,0.5332972724965158,0.4929864493469842,0.46013434691098354,0.5
0.073,0.3745655386741609,0.008153242792643749,0.5593065469966592,0.5325073668770525,0.4927538738989962,0.4605378013366289,0.5
0.07400000000000001,0.3745264976223965,0.00815845260570755,0.5594533391380266,0.5317285739432963,0.4925237805997825,0.4609356231440941,0.5
0.075,0.37448829256504185,0.008163587748596534,0.5595988058115893,0.5309607385994152,0.49229612650081955,0.4613278914015089,0.5
0.076,0.37445091596215585,0.008168649271551991,0.5597429610129854,0.5302037079471877,0.4920708693311357,0.4617146840528724,0.5
0.077,0.3744143603513188,0.008173638210430226,0.5598858185000499,0.5294573311947307,0.4918479674706336,0.4620960779646604,0.5
0.078,0.3743786184692871,0.008178555576414028,0.560027391468991,0.5287214620998663,0.3024471635862817,0.7278777147109328,1.0
0.079,0.37434056495449025,0.008183756137611275,0.5590805585736902,0.5353052885019748,0.3051505314740966,0.7244729809349322,1.0
0.08,0.37429713928464076,0.008189587896455068,0.55814930708433,0.5417953387527082,0.3078281389572993,0.721116043011825,1.0
0.081,0.37424843017747067,0.008196041861250957,0.5572334887271697,0.5481929293731548,0.3104803028515646,0.717806232396379,1.0
0.08199999999999999,0.374194525506599,0.008203109166717902,0.5563329570510587,0.5544993584443884,0.31310733469020396,0.7145428899537702,1.0
0.083,0.37413551230870223,0.008210781072768106,0.555447567406453,0.5607159057863453,0.31570954077790764,0.7113253658681615,1.0
0.084,0.3740714766492806,0.008219048979781781,0.5545771773684421,0.5668438305595592,0.5074674385774585,0.44274745383402936,0.5
0.085,0.37400562203252813,0.008227550616289709,0.5548087801384272,0.5655750431315556,0.507099210357667,0.4433952099761021,0.5
0.086,0.3739410863291736,0.008235930601805764,0.5550382621532173,0.5643240974058118,0.5067350399173951,0.44403391882082427,0.5
0.087,0.373877857473361,0.008244190647059293,0.555265646710914,0.5630907441961137,0.5063748577703934,0.44466370743024386,0.5
0.08800000000000001,0.37381592353127424,0.00825233243890265,0.5554909567105988,0.5618747378135932,0.5060185955050639,0.4452847010776306,0.5
0.08900000000000001,0.3737552726989895,0.008260357640629202,0.5557142146581961,0.5606758360200021,0.5056661857707813,0.44589702327133784,0.5
0.09,0.37369589330024333,0.008268267892304112,0.5559354426725751,0.559493799979113,0.5053175622636638,0.44650079577962065,0.5
0.091,0.37363777378423163,0.008276064811091294,0.5561546624915861,0.5583283942086764,0.5049726597125018,0.4470961386551698,0.5
0.092,0.37358090272342864,0.008283749991577478,0.5563718954780464,0.5571793865328049,0.5046314138648068,0.44768317025942933,0.5
0.09300000000000001,0.3735252688114612,0.008291325006088849,0.5565871626255934,0.5560465480354468,0.504293761473175,0.4482620072863561,0.5
0.094,0.3734708608610219,0.00829879140500237,0.5568004845644438,0.5549296530146378,0.503959640281868,0.44883276478578416,0.5
0.095,0.37341766780180446,0.008306150717054192,0.5570118815671034,0.5538284789371831,0.5036289890135183,0.4493955561865686,0.5
0.096,0.37336567873694443,0.00831340444454331,0.5572213734222167,0.5527428074076175,0.31412153056746467,0.7153560598349705,1.0
0.09699999999999999,0.37331176490881607,0.008320907822614495,0.5563418446560295,0.5589817596488594,0.3167193202618074,0.71212769633711,1.0
0.098,0.37325286222694065,0.008329009332295573,0.5554772889244284,0.5651317936926747,0.31929240631577616,0.708944667924558,1.0
0.099,0.3731890559439207,0.008337700448052035,0.5546275640261529,0.5711941582314576,0.32184108703540526,0.7058063406162822,1.0
0.1,0.3731204305037386,0.008346972764079415,0.553792529473093,0.5771700844959298,0.32436565574465764,0.7027120893412873,1.0
0.10099999999999999,0.3730470695514762,0.008356817992628697,0.5529720464616467,0.5830607865006007,0.3268664008596265,0.6996612978131368,1.0
0.102,0.3729690556710001,0.008367227995468565,0.5521659787554476,0.5888674559442015,0.5185238214714387,0.4312477941014693,0.5
0.10300000000000001,0.3728895892845949,0.00837784091080798,0.5524613243120633,0.5872819443361523,0.518056084503077,0.43205766428470266,0.5
0.10400000000000001,0.37281180483854687,0.00838830180828576,0.5527539755914754,0.5857187396848197,0.5175933563754131,0.43285622643502925,0.5
0.105,0.372735687001494,0.008398612826793089,0.5530439613454204,0.5841775305753159,0.5171355509097324,0.43364363930918,0.5
0.106,0.37266122060536533,0.008408776075330502,0.553331309835814,0.5826580099298364,0.5166825832598688,0.434420059445617,0.5
0.107,0.372588390641995,0.008418793633512335,0.5536160488381006,0.5811598749736601,0.5162343699064349,0.43518564118166647,0.5
0.10800000000000001,0.37251718226081043,0.008428667551912563,0.5538982056476534,0.5796828271843313,0.5157908286418423,0.43594053667947574,0.5
0.109,0.3724475807661963,0.008438399852459583,0.5541778070870846,0.5782265722336463,0.5153518785532145,0.4366848959556446,0.5
0.11,0.3723795716145633,0.008447992528874838,0.5544548795143638,0.5767908199232006,0.5149174400034299,0.4374188669141446,0.5
0.111,0.3723131404118507,0.008457447547048242,0.5547294488297789,0.5753752841292172,0.5144874346148582,0.4381425953744991,0.5
0.11199999999999999,0.372248272910862,0.008466766845438718,0.5550015404833629,0.5739796827436875,0.5140617852520213,0.43885622510184763,0.5
0.113,0.3721849550087152,0.00847595233545816,0.5552711794820187,0.5726037376179429,0.5136404160049612,0.4395598978357677,0.5
0.114,0.372123172962001,0.008485005883247014,0.5555383900484062,0.5712471772694367,0.3240430357171881,0.7056593189510334,1.0
0.115,0.3720597947151755,0.008494283123085778,0.5547160618813738,0.5772190641791896,0.32655168377983973,0.702567938981857,1.0
0.11599999999999999,0.37199175338368606,0.008504132889347354,0.5539081925527131,0.5831058071708197,0.32903639508158117,0.6995199852299744,1.0
0.11699999999999999,0.37191913129330506,0.008514547018068117,0.553114644430466,0.5889086012375309,0.3314974537258315,0.6965148510536741,1.0
0.11800000000000001,0.37184200998899003,0.008525517459472897,0.5523352813340214,0.5946286258927338,0.3339351395532134,0.6935519377015641,1.0
0.11900000000000001,0.37176047023563596,0.008537036277853993,0.5515699687063502,0.6002670440162545,0.33634972767951177,0.6906306549085974,1.0
0.12,0.37167459202927294,0.008549095649636561,0.5508185735810376,0.6058250021378748,0.33874148858164377,0.6877504207511131,1.0
0.121,0.3715844546078685,0.008561687861503832,0.5500809645503868,0.6113036307120827,0.34111068818104834,0.6849106615063674,1.0
0.122,0.37149013646946866,0.008574805307162037,0.5493570117109063,0.6167040445920455,0.34345758798864434,0.6821108114101487,1.0
0.12300000000000001,0.37139171537398336,0.008588440487131258,0.5486465866591392,0.6220273430604211,0.3457824451128893,0.6793503126410972,1.0
0.124,0.3712892683538053,0.008602586006902016,0.5479495624603022,0.6272746100995149,0.3480855123417814,0.6766286151825832,1.0
0.125,0.3711828717250626,0.008617234574971582,0.5472658136149432,0.6324469146790468,0.3503670382303454,0.6739451766755745,1.0
0.126,0.3710726008820458,0.008632379029394543,0.5465952168507492,0.6375453061810072,0.54180748276898,0.4058938977260816,0.5
0.127,0.3709616488991181,0.0086476584956886,0.5470247833196389,0.6352614927248553,0.5411249748858263,0.40706093741905125,0.5
0.128,0.3708531431835621,0.008662718992022804,0.5474504179895281,0.6330098241427655,0.5404496445331468,0.40821168417069253,0.5
0.129,0.37074706135953855,0.008677563600653982,0.5478721620706991,0.6307898516721001,0.5397813682713254,0.40934636671546215,0.5
0.13,0.37064338128588775,0.008692195360668216,0.5482900560615437,0.6286011328710783,0.5391200246097742,0.4104652105545333,0.5
0.131,0.3705420810510167,0.008706617268747649,0.5487041397627471,0.6264432315060958,0.5384654939735924,0.411568438013357,0.5
0.132,0.37044313904099685,0.008720832273537144,0.5491144520990785,0.6243157188850449,0.3486374420204843,0.6780618345933268,1.0
0.133,0.37034341584687996,0.008735197040060424,0.5484338965945837,0.6295275075112132,0.3509178654047934,0.675358927353705,1.0
0.134,0.3702398368779077,0.008750061455422717,0.5477664853338676,0.6346648512345016,0.35317675492963063,0.6726940226663352,1.0
0.135,0.37013247697771573,0.008765418381640173,0.5471120943256685,0.6397287967122821,0.3554143538957872,0.6700665894963471,1.0
0.136,0.37002141028266583,0.008781260781423193,0.5464706009655103,0.6447203760343942,0.3576309015249575,0.6674761042378996,1.0
0.13699999999999998,0.36990671022982646,0.008797581716769151,0.5458418840280486,0.649640606821372,0.3598266329796598,0.6649220506645027,1.0
0.138,0.3697884493247253,0.00881437437941007,0.5452258245259158,0.6544904876003609,0.5511819950588639,0.39699835525917215,0.5
0.139,0.3696698179294516,0.008831278219990047,0.5457094373272561,0.6519616788395206,0.5504151054963525,0.3982912012897946,0.5
0.14,0.3695539406051242,0.008847939601439352,0.5461886317325847,0.6494684796411727,0.549656082174131,0.39956600292625494,0.5
0.141,0.3694407922026566,0.008864361938331851,0.5466634528197695,0.6470103935747132,0.5489047895927321,0.40082301314167423,0.5
0.142,0.36933034783014074,0.008880548597431554,0.5471339449714262,0.6445869306204955,0.5481610941796372,0.4020624816325363,0.5
0.14300000000000002,0.36922258284838566,0.008896502898365978,0.5476001517999368,0.642197607658521,0.5474248644941407,0.40328465456573803,0.5
0.14400000000000002,0.3691174728642253,0.00891222811464339,0.5480621161663269,0.6398419483189469,0.5466959711829582,0.40448977465496455,0.5
0.145,0.3690149937269233,0.008927727474189991,0.548519880190189,0.6375194829031552,0.5459742869567644,0.4056780812010171,0.5
0.146,0.36891512152382006,0.00894300416001017,0.5489734852619305,0.6352297482867229,0.5452596865613097,0.406849810141389,0.5
0.147,0.3688178325794402,0.008958061310346863,0.5494229720458726,0.6329722878958234,0.5445520467697484,0.40800519406235863,0.5
0.14800000000000002,0.3687231034479081,0.008972902019810703,0.5498683805010881,0.6307466515413208,0.5438512463338993,0.4091444622837223,0.5
0.149,0.36863091090904543,0.008987529339976347,0.5503097498924837,0.6285523953311273,0.5431571659581259,0.41026784090357554,0.5
0.15,0.36854123206714207,0.009001946271293089,0.5507471184880508,0.6263890838561373,0.35328947188748416,0.6767811187133861,1.0
0.151,0.36845092614769687,0.009016509535722165,0.5500933900656585,0.631565616853839,0.35553015729032905,0.674097829277752,1.0
0.152,0.3683569172681939,0.009031569071203147,0.5494525749140763,0.6366682492291093,0.35774921480273175,0.6714522783461593,1.0
